483,42,313,188,299
482,31,306,206,359
476,20,295,223,418
461,8,279,239,478
439,-9,256,252,542
418,-30,228,262,609
407,-58,195,268,679
406,-89,158,272,747
410,-122,119,275,811
410,-156,82,279,868
399,-188,48,281,919
378,-216,18,280,963
354,-240,-9,276,1002
336,-258,-35,268,1032
327,-269,-59,258,1052
325,-274,-82,247,1056
325,-274,-103,235,1044
323,-272,-123,220,1014
319,-271,-143,201,968
318,-272,-169,176,909
323,-273,-201,145,843
335,-275,-242,110,773
350,-277,-289,75,706
364,-281,-336,43,644
372,-287,-382,14,587
374,-296,-424,-14,534
374,-306,-462,-43,479
377,-315,-496,-75,417
383,-319,-526,-107,348
390,-315,-548,-137,273
397,-304,-558,-159,199
398,-289,-556,-173,132
394,-273,-542,-179,77
387,-258,-520,-181,33
379,-244,-495,-183,-2
371,-229,-469,-185,-33
366,-212,-443,-186,-59
362,-194,-414,-183,-78
359,-176,-380,-173,-88
357,-158,-342,-158,-89
354,-141,-302,-142,-83
348,-125,-263,-128,-77
338,-111,-227,-119,-75
323,-98,-196,-114,-78
304,-87,-169,-109,-83
284,-77,-143,-102,-87
265,-70,-118,-93,-87
250,-63,-94,-82,-82
238,-60,-73,-73,-75
230,-58,-56,-68,-68
223,-59,-43,-66,-63
214,-59,-35,-66,-60
202,-58,-28,-65,-58
184,-52,-21,-61,-57
161,-44,-14,-55,-54
135,-35,-6,-48,-52
111,-29,-1,-43,-50
94,-27,2,-41,-50
84,-25,3,-40,-52
83,-21,5,-38,-55
85,-12,10,-33,-59
88,2,18,-26,-61
86,15,26,-19,-63
78,23,32,-15,-63
63,22,32,-16,-62
42,17,27,-21,-61
18,12,20,-26,-60
-5,12,15,-30,-60
-24,17,14,-30,-60
-35,23,16,-29,-62
-37,25,19,-28,-64
-35,20,19,-29,-68
-35,12,16,-32,-73
-43,6,11,-35,-76
-58,7,5,-38,-78
-74,14,3,-38,-77
-84,23,4,-36,-74
-83,29,6,-33,-72
-75,31,9,-30,-72
-68,32,10,-26,-75
-71,37,9,-23,-79
-86,46,6,-21,-84
-108,56,3,-20,-87
-127,62,0,-22,-88
-135,59,-2,-26,-87
-131,48,-2,-31,-84
-120,35,0,-34,-82
-111,26,3,-35,-79
-111,24,5,-33,-78
-119,27,6,-32,-77
-132,28,4,-32,-77
-142,25,0,-35,-79
-146,17,-6,-40,-82
-141,8,-11,-44,-86
-132,5,-16,-46,-90
-127,7,-18,-45,-92
-131,14,-19,-43,-93
-145,21,-19,-40,-92
-164,24,-18,-38,-90
-181,26,-17,-38,-89
-188,28,-17,-37,-88
-183,33,-18,-34,-88
-172,41,-20,-30,-89
-163,48,-21,-24,-90
-162,51,-20,-19,-92
-168,48,-18,-17,-93
-175,40,-16,-20,-94
-176,30,-14,-27,-95
-167,20,-12,-36,-95
-154,13,-11,-44,-94
-145,9,-10,-49,-93
-147,7,-8,-51,-92
-160,9,-4,-49,-90
-175,13,0,-45,-88
-184,18,5,-39,-85
-182,23,9,-33,-81
-171,25,12,-28,-77
-158,23,14,-26,-74
-148,22,14,-26,-72
-144,22,13,-26,-72
-144,27,9,-26,-73
-145,35,3,-25,-77
-145,43,-5,-25,-82
-145,46,-12,-27,-88
-148,43,-16,-30,-94
-154,35,-17,-35,-97
-162,26,-14,-37,-97
-166,21,-9,-35,-91
-165,21,0,-26,-79
-157,26,11,-13,-64
-147,34,24,3,-47
-137,43,38,15,-30
-132,49,51,21,-17
-131,51,59,21,-11
-132,49,58,14,-14
-131,42,49,3,-25
-127,32,32,-10,-42
-119,22,13,-25,-62
-111,15,-4,-39,-79
-107,15,-15,-50,-92
-110,20,-18,-55,-99
-118,29,-16,-54,-100
-128,37,-11,-48,-96
-137,41,-7,-38,-90
-143,41,-4,-28,-83
-145,38,-2,-21,-77
-143,35,1,-17,-72
-138,32,5,-16,-71
-129,29,8,-16,-71
-119,24,10,-17,-72
-110,18,10,-19,-71
-105,11,9,-24,-69
-107,7,7,-28,-65
-113,9,7,-31,-62
-121,17,9,-30,-61
-125,27,12,-25,-62
-123,35,14,-16,-64
-120,39,14,-9,-65
-119,39,12,-6,-64
-127,37,8,-8,-64
-144,40,4,-14,-66
-165,46,1,-20,-71
-185,55,-3,-24,-78
-198,61,-5,-25,-85
-207,59,-8,-24,-90
-214,49,-11,-24,-92
-226,35,-13,-27,-93
-244,21,-16,-33,-94
-266,11,-19,-39,-96
-284,7,-23,-43,-98
-296,7,-27,-45,-99
-299,7,-30,-44,-97
-299,6,-31,-44,-91
-300,4,-30,-44,-85
-304,4,-28,-46,-79
-311,5,-27,-50,-77
-315,8,-29,-54,-79
-314,10,-33,-57,-84
-307,12,-39,-58,-90
-301,13,-44,-55,-94
-300,15,-47,-51,-96
-307,19,-46,-45,-95
-319,22,-45,-42,-93
-331,22,-45,-42,-92
-337,19,-48,-47,-93
-337,11,-54,-55,-95
-331,3,-61,-63,-99
-326,-3,-67,-68,-102
-325,-6,-72,-70,-105
-328,-7,-76,-69,-108
-334,-8,-78,-68,-108
-343,-10,-81,-69,-106
-353,-12,-82,-71,-101
-363,-13,-84,-74,-95
-372,-11,-86,-75,-88
-377,-7,-88,-74,-83
-376,-4,-92,-72,-82
-368,-3,-95,-68,-83
-358,-4,-98,-63,-84
-347,-3,-98,-58,-84
-340,-1,-95,-54,-83
-336,2,-90,-52,-80
-334,3,-86,-53,-79
-333,-1,-84,-58,-81
-333,-10,-86,-64,-86
-336,-22,-91,-70,-92
-341,-32,-95,-71,-96
-346,-37,-97,-69,-97
-350,-36,-97,-64,-92
-350,-32,-94,-60,-84
-347,-30,-91,-61,-76
-341,-31,-89,-64,-70
-334,-35,-90,-69,-67
-326,-39,-92,-70,-68
-318,-42,-95,-67,-71
-309,-43,-98,-61,-73
-301,-43,-98,-55,-73
-299,-43,-98,-52,-70
-304,-43,-98,-54,-64
-313,-42,-99,-58,-57
-321,-38,-101,-60,-50
-324,-34,-104,-57,-44
-319,-31,-106,-51,-40
-308,-30,-108,-44,-37
-299,-32,-108,-40,-37
-296,-36,-108,-40,-37
-299,-39,-108,-43,-37
-303,-40,-108,-47,-35
-300,-40,-107,-48,-29
-286,-42,-105,-46,-21
-263,-48,-103,-44,-13
-239,-57,-101,-43,-8
-223,-66,-101,-47,-7
-221,-73,-104,-52,-9
-231,-74,-110,-57,-12
-245,-70,-116,-59,-12
-255,-64,-120,-56,-8
-256,-59,-120,-51,0
-250,-56,-118,-46,8
-243,-55,-116,-46,13
-240,-55,-116,-51,12
-244,-55,-120,-59,5
-252,-55,-129,-68,-5
-259,-57,-139,-75,-15
-266,-62,-151,-81,-24
-272,-69,-160,-83,-28
-279,-76,-165,-81,-27
-285,-82,-165,-76,-21
-280,-87,-157,-69,-11
-256,-90,-144,-62,3
-206,-92,-128,-56,17
-132,-93,-112,-53,29
-44,-93,-98,-50,40
48,-91,-87,-44,51
134,-87,-78,-34,64
214,-81,-67,-21,81
288,-75,-55,-6,101
359,-70,-43,4,122
425,-65,-32,9,142
481,-59,-23,12,160
521,-50,-17,16,178
544,-41,-11,25,197
554,-33,-3,40,220
555,-32,8,57,244
550,-36,18,71,266
540,-45,27,78,284
526,-52,31,78,293
509,-55,32,76,296
494,-55,30,73,295
482,-56,27,70,291
472,-63,23,66,285
461,-76,14,56,274
440,-94,-2,41,256
401,-109,-28,20,230
340,-117,-62,-3,196
256,-117,-102,-25,157
149,-114,-143,-45,120
25,-112,-177,-60,88
-109,-114,-201,-68,67
-238,-115,-211,-68,58
-347,-113,-206,-59,62
-419,-105,-188,-42,77
-445,-93,-164,-22,96
-426,-82,-140,-7,115
-372,-79,-123,-1,126
-302,-86,-117,-8,128
-232,-98,-122,-24,122
-175,-111,-133,-44,110
-136,-121,-146,-61,99
-113,-127,-155,-73,92
-98,-131,-158,-80,90
-86,-137,-157,-82,93
-74,-144,-154,-82,97
-62,-148,-151,-80,101
-53,-148,-148,-77,104
-52,-142,-146,-72,105
-59,-133,-144,-65,105
-73,-125,-140,-59,104
-88,-120,-136,-53,103
-95,-117,-131,-49,102
-91,-113,-127,-47,100
-76,-106,-125,-46,97
-55,-98,-125,-45,91
-36,-93,-126,-44,84
-24,-94,-127,-44,77
-22,-99,-127,-44,71
-26,-108,-126,-44,67
-31,-115,-123,-44,65
-32,-119,-119,-46,63
-29,-120,-116,-49,59
-25,-121,-113,-55,53
-23,-121,-111,-61,45
-26,-119,-108,-66,38
-31,-115,-104,-66,34
-33,-106,-99,-63,33
-26,-97,-92,-57,35
-10,-89,-86,-51,34
10,-85,-83,-49,30
27,-82,-84,-49,22
34,-78,-86,-49,14
29,-69,-86,-47,8
17,-57,-84,-43,5
6,-48,-78,-38,6
2,-46,-70,-36,7
7,-52,-64,-40,5
16,-63,-61,-47,-1
24,-72,-62,-55,-10
25,-76,-65,-59,-19
21,-75,-67,-60,-29
16,-72,-68,-57,-37
14,-73,-68,-55,-45
16,-78,-66,-56,-52
21,-82,-64,-60,-57
25,-80,-60,-65,-59
29,-69,-55,-66,-59
32,-53,-47,-64,-57
40,-38,-40,-60,-58
50,-29,-35,-55,-61
59,-29,-35,-53,-68
63,-33,-39,-53,-76
58,-34,-44,-54,-85
47,-28,-49,-54,-90
36,-18,-49,-54,-92
33,-9,-44,-52,-92
40,-7,-38,-52,-91
56,-12,-33,-54,-90
71,-21,-31,-58,-92
79,-27,-33,-63,-96
75,-28,-36,-68,-100
62,-24,-38,-72,-103
44,-21,-37,-74,-104
28,-22,-34,-75,-105
16,-25,-30,-75,-106
13,-29,-27,-73,-108
18,-28,-26,-70,-112
32,-21,-27,-66,-116
51,-11,-29,-62,-120
71,-2,-30,-59,-122
85,4,-30,-57,-122
87,6,-28,-58,-121
78,7,-27,-59,-122
61,10,-25,-59,-124
46,13,-26,-60,-127
41,14,-28,-60,-131
50,11,-31,-62,-133
68,3,-35,-65,-134
88,-5,-39,-69,-135
101,-10,-41,-72,-136
101,-11,-44,-75,-138
90,-10,-46,-77,-141
75,-12,-49,-81,-146
63,-19,-52,-86,-153
58,-28,-56,-93,-160
60,-33,-60,-99,-166
64,-31,-63,-101,-171
65,-22,-66,-99,-173
62,-10,-68,-94,-172
59,0,-70,-89,-169
59,3,-71,-85,-167
65,2,-71,-83,-167
77,1,-71,-83,-168
90,2,-71,-84,-168
101,6,-71,-85,-166
110,10,-70,-84,-160
115,11,-69,-83,-152
121,6,-68,-82,-146
126,-2,-68,-80,-145
130,-9,-69,-80,-149
129,-14,-70,-81,-157
123,-18,-72,-84,-165
114,-21,-73,-89,-169
106,-26,-73,-94,-171
103,-29,-74,-98,-171
108,-29,-74,-99,-173
119,-24,-76,-98,-176
131,-18,-80,-95,-181
140,-13,-83,-95,-185
143,-12,-85,-96,-187
139,-15,-85,-98,-187
131,-16,-82,-97,-186
124,-13,-77,-93,-185
120,-4,-73,-85,-186
123,5,-71,-76,-190
134,10,-71,-71,-193
150,5,-73,-71,-196
166,-6,-75,-78,-197
176,-18,-76,-89,-197
177,-24,-76,-98,-198
172,-23,-75,-103,-199
166,-17,-76,-103,-200
163,-14,-78,-100,-201
167,-17,-81,-97,-202
174,-25,-83,-95,-201
181,-33,-83,-95,-199
181,-35,-81,-96,-197
175,-31,-78,-96,-194
168,-24,-77,-94,-191
167,-16,-77,-92,-189
177,-11,-80,-88,-189
195,-7,-84,-85,-191
216,-3,-89,-82,-195
231,2,-91,-81,-198
235,6,-91,-83,-201
231,6,-88,-87,-201
225,-1,-84,-93,-199
224,-13,-81,-98,-194
230,-24,-80,-102,-190
241,-30,-82,-102,-187
250,-32,-87,-99,-188
254,-31,-94,-96,-191
253,-34,-101,-97,-197
250,-42,-107,-103,-203
249,-52,-111,-112,-209
252,-58,-112,-119,-212
258,-55,-110,-121,-210
264,-43,-102,-114,-201
268,-27,-91,-98,-188
270,-13,-75,-81,-171
270,-4,-59,-66,-155
270,1,-46,-58,-144
269,4,-40,-58,-140
265,8,-42,-66,-145
259,12,-53,-77,-154
251,11,-68,-89,-165
245,3,-85,-101,-174
244,-11,-99,-112,-179
251,-27,-108,-120,-182
264,-41,-112,-126,-183
280,-49,-111,-127,-184
294,-54,-109,-124,-185
302,-58,-105,-118,-186
303,-62,-101,-112,-185
299,-65,-98,-106,-182
294,-64,-94,-100,-177
293,-57,-91,-96,-171
297,-46,-88,-93,-167
303,-35,-85,-90,-166
308,-27,-82,-88,-165
310,-23,-79,-86,-164
311,-20,-77,-84,-164
314,-16,-75,-81,-163
323,-11,-76,-77,-163
337,-7,-79,-76,-166
350,-8,-84,-77,-170
355,-13,-89,-82,-174
348,-21,-92,-87,-174
335,-29,-90,-91,-170
324,-33,-84,-91,-163
324,-34,-76,-88,-156
337,-34,-69,-85,-151
357,-38,-65,-86,-151
371,-43,-64,-89,-153
372,-47,-66,-93,-155
360,-47,-67,-96,-156
343,-40,-68,-94,-156
334,-31,-68,-90,-155
337,-22,-67,-86,-156
350,-17,-68,-85,-159
366,-15,-69,-87,-162
377,-12,-72,-90,-165
382,-5,-75,-91,-166
385,5,-77,-89,-166
390,13,-81,-84,-166
399,14,-84,-81,-167
407,6,-87,-82,-169
407,-8,-90,-87,-171
396,-21,-90,-94,-171
377,-28,-88,-99,-169
359,-29,-83,-100,-166
352,-29,-79,-98,-163
359,-31,-76,-96,-162
373,-37,-76,-95,-162
388,-44,-80,-96,-163
395,-47,-85,-97,-163
393,-41,-91,-97,-160
385,-27,-95,-94,-156
379,-11,-96,-89,-152
378,2,-95,-85,-150
382,7,-93,-82,-151
388,7,-90,-82,-155
392,4,-90,-82,-160
391,3,-92,-83,-165
385,2,-97,-84,-169
376,-1,-102,-85,-173
368,-8,-105,-86,-176
364,-19,-105,-89,-178
365,-30,-102,-91,-180
372,-37,-96,-93,-181
382,-39,-92,-95,-181
390,-38,-89,-97,-180
392,-36,-91,-99,-179
386,-36,-95,-100,-178
372,-39,-99,-100,-178
356,-40,-103,-98,-180
344,-38,-106,-94,-182
339,-30,-108,-91,-184
340,-20,-110,-89,-184
341,-9,-112,-89,-183
339,-2,-113,-91,-180
330,2,-114,-93,-178
318,5,-114,-93,-176
308,6,-113,-92,-178
304,6,-113,-89,-181
306,3,-115,-88,-184
310,-4,-117,-88,-185
313,-14,-119,-90,-184
310,-24,-119,-92,-180
302,-32,-117,-94,-177
291,-35,-113,-93,-176
281,-36,-108,-92,-178
277,-37,-105,-89,-181
278,-38,-102,-87,-183
282,-39,-99,-85,-182
284,-38,-98,-85,-177
282,-33,-98,-85,-171
275,-26,-99,-87,-167
267,-19,-101,-89,-166
261,-16,-104,-92,-169
258,-15,-107,-95,-173
257,-13,-107,-97,-176
256,-7,-106,-99,-176
250,1,-105,-99,-173
239,9,-105,-98,-170
223,10,-107,-97,-168
209,3,-109,-98,-169
200,-11,-110,-100,-171
199,-27,-109,-103,-173
204,-36,-105,-106,-175
209,-37,-101,-108,-175
210,-32,-98,-107,-173
205,-26,-97,-103,-169
196,-25,-97,-99,-164
187,-28,-96,-95,-159
180,-32,-94,-93,-155
177,-34,-92,-92,-153
174,-32,-90,-92,-151
169,-27,-90,-90,-149
162,-22,-91,-87,-147
155,-18,-92,-84,-145
154,-17,-94,-82,-143
161,-15,-97,-83,-144
175,-14,-99,-85,-147
191,-12,-102,-88,-153
201,-13,-104,-92,-159
201,-17,-106,-96,-162
188,-23,-107,-100,-162
164,-28,-106,-104,-158
136,-30,-106,-108,-152
110,-29,-106,-110,-148
92,-27,-108,-111,-148
85,-29,-108,-110,-150
89,-32,-107,-108,-154
97,-35,-102,-104,-157
103,-34,-96,-100,-158
102,-28,-91,-95,-156
93,-19,-88,-91,-151
81,-11,-88,-86,-145
74,-6,-89,-80,-139
76,-5,-88,-76,-134
87,-4,-85,-72,-133
100,0,-80,-71,-134
108,6,-75,-70,-139
106,10,-74,-72,-144
95,9,-76,-74,-150
80,2,-80,-77,-154
66,-9,-84,-81,-156
57,-19,-87,-84,-154
51,-23,-87,-86,-150
46,-20,-84,-83,-143
40,-14,-77,-76,-132
32,-9,-66,-65,-117
25,-8,-52,-53,-99
21,-8,-37,-43,-83
20,-6,-25,-38,-72
21,-2,-22,-40,-70
21,4,-27,-47,-77
18,8,-39,-56,-91
10,9,-54,-65,-106
1,6,-65,-71,-118
-6,4,-71,-74,-122
-10,5,-71,-73,-120
-8,12,-67,-70,-113
-2,19,-63,-66,-105
6,24,-59,-62,-100
12,22,-57,-58,-97
15,16,-53,-55,-96
14,9,-49,-52,-95
11,5,-45,-50,-93
10,7,-40,-48,-90
15,11,-35,-45,-86
26,14,-31,-44,-83
40,15,-27,-42,-80
52,14,-24,-41,-78
55,14,-23,-38,-76
50,20,-22,-32,-73
39,29,-22,-25,-69
32,38,-19,-17,-64
34,44,-15,-10,-58
46,45,-9,-6,-54
63,43,-2,-5,-51
75,42,3,-4,-50
75,45,7,-2,-50
64,51,9,0,-50
47,55,11,2,-48
35,56,14,2,-46
35,51,19,-1,-45
46,44,23,-5,-45
62,39,26,-9,-48
75,36,26,-12,-50
78,36,24,-12,-51
70,35,22,-13,-49
56,33,22,-14,-44
43,30,23,-15,-40
38,29,25,-16,-38
40,32,25,-14,-39
48,40,25,-10,-43
54,48,23,-4,-46
52,55,21,0,-47
40,59,20,1,-46
20,61,20,0,-44
0,65,18,-2,-41
-14,71,17,-2,-41
-18,77,15,0,-44
-18,80,13,5,-48
-18,75,13,10,-54
-25,65,14,11,-58
-39,51,16,9,-60
-57,40,16,4,-60
-74,35,15,-2,-59
-85,33,15,-8,-58
-91,34,15,-13,-56
-93,34,18,-15,-54
-96,34,21,-17,-52
-101,35,23,-18,-50
-106,39,22,-18,-47
-107,46,20,-16,-46
-104,52,17,-13,-45
-99,57,15,-9,-45
-95,61,17,-4,-44
-96,64,21,0,-42
-103,69,26,4,-40
-113,75,29,7,-38
-122,79,32,9,-37
-125,79,33,11,-37
-121,72,33,11,-39
-113,64,34,10,-40
-106,57,34,7,-40
-101,55,34,2,-38
-103,56,35,-3,-37
-109,56,36,-7,-37
-118,52,38,-9,-38
-129,45,41,-6,-39
-139,38,45,-1,-39
-148,39,48,5,-38
-155,50,50,11,-34
-159,66,51,15,-31
-158,80,51,17,-28
-153,86,50,17,-28
-147,83,48,17,-30
-142,76,46,18,-32
-140,73,44,21,-32
-144,79,43,27,-29
-151,89,43,34,-24
-158,98,45,42,-18
-162,98,47,48,-12
-163,89,48,50,-9
-162,76,48,47,-9
-160,65,47,42,-11
-160,60,45,37,-14
-161,59,44,32,-16
-165,59,44,29,-16
-167,55,46,27,-16
-167,49,47,24,-16
-163,44,48,21,-16
-157,46,48,21,-18
-154,56,47,24,-21
-156,70,48,31,-23
-165,84,50,41,-24
-179,91,54,51,-22
-192,93,57,58,-17
-200,92,57,60,-12
-198,91,56,59,-7
-188,91,52,57,-4
-174,90,47,55,-4
-164,88,45,53,-8
-160,83,45,50,-12
-163,77,48,46,-16
-172,70,51,39,-20
-181,65,51,32,-22
-189,61,48,25,-24
-193,56,41,21,-25
-194,52,32,19,-25
-192,49,22,19,-25
-187,50,15,20,-23
-180,54,11,21,-21
-171,60,8,21,-21
-164,65,5,18,-24
-160,66,1,14,-30
-163,64,-7,8,-38
-172,61,-16,1,-46
-187,60,-25,-5,-53
-206,61,-33,-8,-57
-226,61,-38,-9,-57
-240,58,-36,-5,-53
-242,51,-28,2,-43
-227,45,-15,10,-30
-193,41,3,19,-17
-140,41,19,27,-5
-73,45,31,31,3
4,48,40,32,8
90,46,45,32,14
181,42,53,33,25
274,38,66,38,43
363,42,83,50,66
439,55,102,65,88
493,73,117,81,107
522,90,125,93,119
531,99,126,99,126
529,100,123,102,133
522,98,121,107,142
516,98,125,115,156
511,103,133,129,172
503,110,144,143,187
489,115,156,154,199
473,112,167,159,206
456,103,178,158,209
444,94,189,154,210
436,92,200,152,210
427,96,207,150,205
410,103,206,146,191
374,104,190,133,166
310,93,159,109,126
213,73,115,74,77
86,52,65,36,24
-61,40,19,1,-21
-208,40,-16,-23,-53
-336,50,-35,-35,-68
-427,61,-40,-35,-70
-472,69,-32,-28,-64
-474,71,-19,-17,-57
-444,71,-6,-3,-53
-394,75,6,11,-50
-336,81,15,23,-47
-277,86,22,30,-42
-224,83,27,30,-35
-181,73,31,26,-29
-153,60,35,20,-25
-139,50,40,16,-23
-136,48,45,15,-23
-137,51,50,17,-21
-134,56,54,20,-19
-127,56,56,21,-15
-121,50,55,20,-11
-123,44,52,16,-9
-137,43,49,13,-8
-159,51,48,13,-9
-177,65,50,16,-10
-181,81,55,21,-10
-169,95,62,29,-10
-149,104,71,38,-10
-133,112,80,48,-12
-130,119,91,58,-15
-140,125,106,68,-21
-155,130,126,75,-29
-164,133,151,78,-37
-165,135,181,79,-45
-161,138,212,80,-50
-157,143,243,82,-50
-157,149,270,87,-44
-159,153,294,95,-33
-158,154,315,106,-18
-149,150,335,119,1
-135,147,354,133,25
-124,148,373,151,54
-126,156,391,172,89
-141,169,408,195,129
-165,180,422,217,171
-186,185,434,236,216
-196,182,441,253,261
-193,175,441,267,309
-183,166,434,282,360
-173,155,420,298,415
-171,139,401,313,473
-178,116,380,323,531
-190,84,357,328,590
-204,48,333,328,647
-217,12,305,328,706
-227,-19,270,331,769
-234,-44,231,338,837
-240,-67,187,350,906
-243,-93,145,361,973
-245,-122,108,369,1032
-245,-149,77,372,1078
-246,-168,53,370,1108
-247,-178,33,363,1122
-249,-180,15,354,1121
-253,-180,-3,341,1107
-255,-181,-21,322,1079
-255,-183,-39,298,1038
-251,-182,-58,270,984
-240,-175,-80,238,920
-222,-163,-106,204,848
-201,-152,-137,169,772
-179,-151,-173,135,699
-160,-162,-211,101,630
-144,-183,-249,69,568
-129,-203,-286,39,511
-111,-213,-321,11,452
-87,-212,-353,-16,389
-58,-203,-380,-43,318
-31,-194,-401,-71,243
-12,-188,-412,-98,171
-4,-187,-414,-119,108
-4,-183,-406,-133,59
-4,-172,-392,-138,22
3,-153,-374,-136,-9
21,-129,-357,-132,-38
47,-107,-341,-128,-68
72,-89,-324,-125,-95
90,-76,-306,-120,-115
97,-63,-284,-111,-123
93,-49,-258,-99,-122
81,-32,-229,-84,-117
69,-18,-197,-70,-112
59,-9,-165,-58,-111
56,-6,-134,-50,-112
62,-7,-104,-43,-112
76,-7,-78,-34,-108
93,-4,-58,-24,-100
107,2,-42,-14,-90
114,7,-31,-8,-82
111,10,-22,-5,-78
101,11,-14,-5,-77
93,13,-7,-6,-78
89,21,-1,-3,-79
92,35,4,4,-78
97,50,6,13,-76
100,63,7,23,-73
99,71,8,30,-71
93,73,12,33,-68
87,73,17,34,-65
85,72,23,34,-62
87,72,27,34,-60
94,70,29,35,-59
102,65,30,36,-60
108,59,31,36,-63
110,53,33,35,-67
108,51,37,34,-71
103,52,42,34,-74
99,56,45,34,-74
100,57,46,34,-74
110,55,44,34,-75
127,53,42,33,-81
148,53,40,31,-90
167,58,39,30,-102
179,68,40,28,-111
183,78,40,27,-116
180,84,40,27,-116
176,88,37,27,-110
174,90,35,30,-103
174,95,33,34,-95
177,103,35,40,-89
182,111,39,45,-84
191,114,44,49,-80
205,108,49,51,-76
223,97,50,51,-73
242,85,48,52,-71
257,79,45,52,-70
264,78,43,53,-71
264,81,43,52,-73
262,81,45,49,-76
263,76,47,44,-81
268,67,45,39,-86
280,62,41,37,-92
295,63,36,40,-97
311,73,33,49,-100
326,86,35,60,-99
339,99,42,71,-92
348,110,54,83,-82
352,119,69,93,-67
352,129,83,103,-52
348,141,95,112,-38
345,149,103,120,-28
345,150,106,122,-25
350,139,103,117,-29
358,121,92,105,-40
369,101,76,88,-54
379,88,58,70,-68
389,84,42,56,-79
398,85,32,48,-85
407,87,28,45,-87
413,85,30,47,-86
414,82,34,52,-84
410,82,38,58,-84
402,89,40,63,-84
395,101,41,68,-85
391,113,42,70,-86
392,119,41,72,-87
399,118,40,74,-87
409,116,40,80,-87
421,116,39,88,-86
432,122,40,98,-84
440,131,43,105,-80
445,134,45,106,-75
444,129,47,101,-67
440,115,46,92,-60
434,99,43,83,-53
429,88,39,78,-48
427,86,36,78,-44
427,89,37,79,-42
426,92,41,81,-41
425,91,46,79,-41
421,86,50,76,-42
418,83,50,74,-43
417,85,46,75,-43
420,94,41,80,-42
427,107,39,86,-39
437,117,39,90,-36
448,123,43,91,-35
458,124,46,89,-36
463,124,47,86,-40
461,124,45,84,-44
451,124,39,84,-47
436,122,33,84,-47
420,115,28,83,-44
410,106,25,80,-41
409,96,23,76,-39
417,90,20,71,-40
427,86,16,67,-43
434,83,10,64,-47
436,77,5,60,-51
436,68,1,55,-54
439,60,-3,49,-57
449,56,-5,45,-60
463,59,-8,44,-65
475,69,-10,47,-70
481,80,-12,51,-74
477,88,-13,54,-78
470,92,-14,52,-81
466,93,-15,47,-84
471,95,-18,42,-89
484,100,-23,38,-93
496,105,-29,37,-97
501,104,-34,38,-98
493,95,-39,38,-97
477,79,-42,35,-95
462,61,-46,30,-96
456,48,-50,23,-101
463,42,-56,15,-111
478,42,-63,7,-122
494,43,-69,-1,-130
502,41,-74,-10,-135
499,36,-76,-18,-137
487,31,-78,-24,-138
475,29,-81,-28,-141
467,32,-86,-28,-146
467,37,-93,-27,-152
472,41,-98,-25,-156
481,42,-102,-25,-156
489,43,-103,-25,-154
494,45,-104,-26,-151
498,48,-106,-28,-149
498,50,-111,-30,-148
497,48,-119,-34,-149
493,40,-127,-38,-150
490,27,-134,-43,-152
488,14,-138,-48,-154
488,5,-138,-54,-157
491,0,-138,-59,-162
492,-5,-140,-66,-166
490,-12,-147,-75,-170
483,-21,-158,-83,-174
473,-28,-170,-90,-176
464,-29,-180,-93,-178
459,-21,-186,-92,-181
456,-6,-188,-87,-183
453,6,-187,-84,-186
448,8,-186,-83,-189
440,1,-187,-86,-192
431,-12,-190,-91,-195
422,-22,-195,-95,-198
417,-23,-200,-97,-199
413,-19,-206,-97,-199
410,-15,-211,-95,-196
405,-19,-216,-96,-194
400,-33,-221,-101,-192
394,-51,-226,-109,-192
389,-66,-230,-118,-195
383,-73,-232,-126,-199
375,-74,-234,-132,-202
365,-73,-234,-135,-203
353,-76,-235,-136,-203
342,-82,-238,-136,-201
335,-88,-242,-136,-199
332,-87,-246,-136,-198
329,-79,-252,-135,-198
325,-68,-256,-134,-200
317,-59,-259,-132,-202
304,-58,-261,-131,-204
288,-62,-263,-130,-205
271,-67,-266,-129,-206
254,-70,-270,-127,-206
236,-69,-274,-125,-204
221,-70,-277,-125,-200
211,-74,-278,-128,-195
207,-85,-277,-133,-191
209,-99,-277,-139,-189
214,-111,-278,-145,-187
214,-117,-282,-148,-187
206,-118,-286,-149,-186
187,-118,-291,-149,-184
162,-121,-293,-150,-182
137,-127,-294,-153,-179
119,-134,-295,-158,-177
111,-138,-296,-163,-177
109,-137,-300,-165,-179
107,-133,-307,-166,-182
102,-128,-316,-164,-186
89,-125,-323,-161,-189
71,-122,-329,-160,-192
50,-120,-332,-160,-194
30,-117,-334,-161,-195
12,-116,-335,-164,-195
-2,-120,-338,-167,-195
-12,-132,-342,-171,-195
-21,-149,-347,-176,-194
-30,-168,-352,-182,-193
-42,-182,-354,-187,-190
-60,-189,-355,-192,-187
-81,-190,-355,-196,-182
-103,-189,-353,-197,-176
-121,-187,-350,-195,-167
-133,-184,-343,-187,-156
-140,-176,-331,-173,-141
-145,-164,-316,-154,-123
-149,-150,-302,-135,-107
-156,-141,-292,-121,-95
-164,-140,-290,-119,-92
-174,-147,-299,-130,-98
-186,-158,-315,-151,-110
-200,-166,-335,-176,-123
-215,-169,-352,-196,-134
-228,-169,-364,-208,-139
-235,-171,-369,-211,-140
-234,-178,-369,-207,-137
-225,-190,-367,-200,-136
-217,-201,-363,-193,-136
-213,-206,-361,-188,-137
-219,-204,-360,-185,-140
-233,-202,-360,-186,-143
-249,-203,-360,-189,-144
-263,-210,-360,-193,-144
-272,-218,-359,-197,-143
-276,-222,-358,-198,-142
-277,-217,-355,-194,-140
-276,-205,-353,-187,-137
-274,-193,-350,-180,-133
-270,-185,-348,-175,-128
-264,-184,-346,-171,-121
-260,-184,-344,-168,-113
-259,-182,-342,-164,-104
-261,-177,-340,-158,-97
-262,-173,-339,-152,-91
-258,-176,-337,-149,-88
-249,-188,-336,-150,-88
-235,-205,-334,-154,-88
-220,-218,-332,-160,-90
-205,-222,-330,-163,-90
-193,-216,-329,-164,-89
-185,-208,-328,-164,-86
-182,-204,-327,-165,-82
-187,-210,-324,-168,-78
-197,-222,-319,-172,-76
-208,-230,-315,-174,-76
-213,-228,-312,-173,-78
-207,-214,-310,-168,-82
-190,-196,-310,-162,-84
-169,-181,-309,-156,-85
-154,-176,-307,-153,-83
-152,-178,-303,-150,-80
-158,-182,-299,-149,-77
-164,-182,-295,-147,-75
-160,-178,-292,-144,-75
-143,-172,-290,-143,-76
-121,-170,-286,-142,-78
-108,-174,-281,-142,-80
-112,-181,-275,-143,-81
-133,-188,-268,-143,-84
-161,-190,-262,-144,-87
-183,-188,-257,-146,-90
-189,-186,-253,-148,-92
-180,-185,-248,-151,-94
-164,-187,-242,-152,-94
-154,-190,-235,-150,-95
-158,-188,-229,-144,-97
-177,-182,-225,-138,-101
-203,-172,-223,-134,-106
-227,-162,-222,-133,-112
-243,-153,-222,-135,-119
-251,-146,-221,-138,-126
-255,-139,-219,-140,-134
-262,-130,-217,-139,-141
-274,-122,-213,-136,-147
-292,-118,-209,-133,-152
-308,-120,-204,-132,-155
-320,-128,-197,-133,-157
-324,-137,-190,-134,-161
-324,-143,-182,-135,-165
-325,-142,-176,-135,-171
-332,-137,-171,-135,-177
-346,-132,-168,-135,-182
-364,-130,-166,-135,-185
-380,-130,-164,-135,-186
-389,-128,-162,-132,-186
-389,-122,-157,-127,-185
-383,-109,-149,-120,-183
-376,-94,-141,-113,-180
-376,-82,-133,-111,-179
-384,-75,-128,-112,-179
-401,-72,-127,-115,-183
-421,-69,-128,-117,-190
-438,-63,-129,-115,-197
-448,-55,-129,-108,-201
-449,-48,-125,-100,-201
-445,-45,-118,-95,-198
-443,-47,-110,-94,-195
-446,-54,-103,-99,-195
-456,-62,-100,-106,-197
-468,-67,-99,-112,-201
-478,-72,-100,-115,-204
-479,-76,-100,-116,-203
-470,-81,-97,-115,-198
-455,-83,-93,-113,-191
-440,-80,-88,-112,-186
-430,-70,-85,-112,-184
-432,-55,-85,-110,-186
-444,-39,-87,-109,-187
-465,-26,-89,-107,-187
-487,-16,-90,-105,-185
-505,-9,-88,-101,-181
-511,-3,-82,-97,-178
-506,4,-74,-93,-178
-494,10,-66,-91,-180
-481,9,-60,-92,-183
-476,1,-58,-97,-186
-480,-13,-60,-105,-189
-489,-28,-64,-112,-192
-497,-38,-69,-115,-197
-499,-41,-71,-115,-202
-494,-39,-71,-112,-207
-489,-36,-69,-108,-210
-488,-36,-66,-106,-211
-494,-38,-66,-106,-211
-503,-40,-68,-107,-212
-511,-39,-73,-109,-214
-512,-33,-78,-109,-217
-506,-25,-81,-108,-219
-497,-17,-82,-107,-218
-491,-9,-79,-104,-215
-489,-2,-76,-101,-211
-492,5,-73,-98,-207
-494,13,-70,-96,-205
-494,17,-70,-95,-204
-491,16,-70,-96,-205
-485,7,-70,-98,-205
-483,-5,-69,-99,-204
-484,-14,-67,-98,-201
-488,-18,-63,-95,-197
-493,-15,-60,-92,-195
-493,-12,-59,-90,-194
-488,-13,-63,-93,-196
-477,-20,-71,-98,-200
-466,-31,-81,-105,-206
-460,-38,-91,-111,-213
-463,-38,-99,-115,-221
-478,-30,-105,-117,-227
-499,-19,-108,-117,-230
-520,-10,-111,-115,-231
-530,-5,-113,-111,-228
-523,-4,-111,-104,-222
-493,-2,-102,-95,-216
-441,3,-87,-86,-209
-372,9,-68,-79,-202
-292,12,-48,-75,-193
-206,11,-31,-73,-180
-117,6,-15,-68,-159
-28,3,3,-58,-131
60,6,24,-41,-99
138,14,49,-20,-69
199,24,71,-1,-47
237,28,85,9,-37
249,25,88,9,-38
241,16,81,1,-43
222,10,72,-8,-45
203,11,66,-12,-39
189,22,69,-7,-23
183,38,80,5,-1
183,52,94,21,20
186,61,106,36,36
191,65,113,48,42
200,68,115,55,41
209,70,114,58,35
215,73,112,58,26
211,72,107,52,14
189,64,97,41,-2
143,50,79,22,-25
71,32,52,-1,-56
-25,17,20,-27,-92
-140,8,-15,-50,-128
-266,3,-45,-69,-158
-391,-1,-68,-82,-177
-500,-6,-80,-88,-184
-579,-11,-83,-88,-180
-619,-11,-78,-83,-171
-621,-3,-66,-74,-162
-592,12,-51,-63,-155
-543,29,-35,-52,-150
-488,41,-21,-45,-147
-434,45,-12,-41,-145
-385,41,-8,-40,-143
-342,36,-8,-39,-141
-309,35,-11,-39,-141
-287,37,-14,-38,-141
-279,40,-16,-38,-141
-282,39,-18,-40,-140
-291,34,-21,-44,-137
-299,25,-25,-48,-135
-299,18,-29,-50,-134
-290,15,-31,-51,-134
-277,15,-31,-51,-135
-265,15,-28,-52,-136
-257,12,-24,-56,-136
-253,8,-21,-60,-134
-253,4,-21,-63,-132
-253,3,-23,-63,-131
-253,7,-27,-60,-131
-254,13,-30,-58,-132
-255,17,-33,-57,-133
-256,20,-35,-58,-132
-256,22,-38,-59,-130
-254,27,-42,-59,-126
-249,35,-45,-56,-124
-243,44,-45,-50,-123
-240,49,-42,-46,-124
-239,46,-37,-44,-127
-240,38,-32,-46,-130
-240,28,-28,-50,-132
-238,21,-27,-53,-134
-232,19,-30,-56,-135
-227,19,-34,-58,-136
-224,17,-40,-61,-136
-223,12,-45,-65,-138
-225,4,-49,-70,-139
-224,1,-50,-73,-141
-218,4,-49,-74,-143
-207,13,-48,-73,-145
-194,20,-50,-72,-147
-185,23,-53,-72,-150
-182,18,-60,-73,-154
-185,12,-67,-75,-157
-191,10,-72,-75,-160
-194,16,-73,-73,-163
-193,27,-70,-71,-165
-187,36,-66,-71,-169
-181,37,-62,-74,-174
-176,28,-62,-81,-182
-174,14,-65,-86,-192
-172,2,-70,-88,-199
-167,-5,-75,-85,-203
-159,-6,-77,-80,-201
-148,-7,-75,-76,-195
-138,-10,-70,-75,-187
-132,-15,-65,-78,-182
-132,-19,-62,-82,-180
-135,-17,-63,-84,-183
-138,-9,-69,-82,-187
-138,2,-77,-79,-192
-133,9,-85,-76,-195
-123,10,-92,-76,-197
-112,9,-95,-79,-199
-103,8,-95,-82,-202
-96,10,-94,-85,-206
-95,12,-93,-86,-208
-97,10,-93,-87,-209
-101,0,-94,-90,-209
-104,-17,-94,-95,-208
-101,-34,-93,-101,-208
-91,-43,-92,-104,-209
-76,-43,-89,-105,-211
-59,-35,-87,-103,-212
-45,-28,-85,-101,-211
-38,-26,-84,-101,-208
-37,-30,-84,-103,-203
-42,-33,-84,-105,-198
-49,-30,-84,-103,-191
-52,-19,-83,-98,-185
-49,-5,-83,-90,-179
-41,5,-84,-83,-176
-30,7,-85,-80,-176
-20,1,-86,-83,-179
-14,-5,-85,-89,-186
-11,-8,-82,-95,-194
-9,-5,-78,-98,-200
-5,-2,-74,-97,-203
7,-3,-71,-94,-201
27,-10,-70,-91,-196
51,-20,-70,-91,-191
73,-27,-70,-94,-187
88,-29,-69,-99,-185
92,-26,-66,-103,-185
87,-22,-62,-106,-184
80,-21,-58,-106,-182
75,-22,-57,-104,-179
78,-23,-59,-102,-176
90,-21,-63,-99,-174
107,-13,-67,-97,-174
128,-5,-69,-96,-176
150,-1,-70,-95,-179
172,-3,-71,-95,-181
191,-9,-71,-96,-182
207,-14,-73,-97,-182
216,-15,-75,-98,-180
219,-12,-76,-98,-179
222,-10,-76,-97,-179
229,-11,-76,-98,-179
245,-18,-75,-99,-179
269,-26,-75,-100,-179
294,-31,-74,-101,-177
313,-31,-72,-100,-175
323,-28,-68,-97,-172
326,-25,-61,-92,-168
329,-24,-54,-87,-166
340,-26,-48,-83,-167
360,-27,-46,-80,-170
383,-24,-49,-79,-177
402,-17,-57,-78,-185
410,-12,-67,-78,-193
411,-10,-76,-77,-198
412,-14,-82,-77,-199
419,-19,-83,-76,-196
437,-19,-79,-75,-190
461,-11,-68,-71,-180
483,2,-52,-64,-167
496,17,-33,-55,-151
498,25,-14,-47,-135
493,24,0,-43,-123
486,17,5,-45,-118
482,7,0,-52,-124
484,-3,-15,-64,-137
491,-12,-33,-78,-153
502,-20,-50,-92,-166
516,-28,-61,-103,-171
530,-34,-65,-109,-169
543,-34,-64,-110,-164
553,-27,-60,-104,-159
558,-16,-58,-95,-159
560,-5,-57,-84,-163
563,2,-58,-74,-167
567,1,-59,-66,-169
574,-2,-59,-63,-168
580,-5,-57,-62,-163
585,-5,-54,-62,-159
588,-3,-50,-63,-157
591,-2,-48,-65,-158
594,-5,-47,-69,-160
597,-13,-46,-75,-160
599,-21,-47,-81,-159
597,-26,-47,-86,-157
590,-26,-47,-87,-152
582,-23,-44,-84,-147
577,-22,-39,-78,-142
577,-24,-34,-72,-137
583,-27,-30,-70,-134
592,-29,-29,-72,-133
602,-26,-31,-75,-135
609,-18,-34,-78,-140
612,-10,-38,-77,-145
611,-5,-39,-73,-149
608,-6,-37,-67,-149
603,-9,-34,-62,-146
599,-10,-33,-59,-141
595,-6,-33,-59,-135
594,1,-36,-61,-131
595,7,-40,-63,-129
597,6,-41,-64,-130
599,-1,-41,-65,-132
600,-12,-39,-66,-136
597,-21,-39,-69,-141
591,-25,-42,-74,-146
582,-26,-49,-81,-150
572,-27,-56,-89,-154
563,-32,-63,-96,-159
557,-39,-66,-101,-163
553,-44,-67,-102,-167
550,-44,-67,-99,-170
549,-38,-67,-95,-172
549,-30,-68,-90,-170
548,-24,-69,-88,-167
547,-20,-69,-87,-163
544,-19,-68,-86,-159
537,-16,-66,-85,-155
524,-11,-63,-82,-154
507,-5,-62,-79,-153
489,-2,-62,-75,-154
473,-5,-65,-74,-154
463,-14,-69,-77,-154
458,-24,-72,-81,-153
457,-30,-74,-87,-152
457,-31,-73,-90,-151
454,-30,-69,-90,-150
447,-31,-64,-87,-149
438,-35,-57,-81,-148
426,-42,-52,-77,-148
413,-46,-48,-73,-148
399,-44,-48,-73,-149
383,-35,-48,-74,-150
364,-25,-50,-75,-150
344,-18,-50,-76,-147
324,-16,-50,-73,-141
305,-16,-48,-67,-133
290,-14,-47,-60,-126
281,-9,-46,-53,-122
276,-1,-45,-49,-121
275,4,-45,-48,-122
274,3,-44,-51,-123
270,-4,-42,-56,-121
259,-14,-38,-61,-117
243,-21,-35,-64,-113
223,-23,-33,-67,-111
200,-23,-32,-68,-113
178,-24,-33,-71,-117
159,-29,-36,-74,-121
144,-38,-40,-77,-123
136,-44,-43,-80,-122
133,-45,-44,-80,-118
133,-40,-43,-79,-113
130,-30,-39,-77,-109
120,-21,-34,-75,-107
101,-14,-28,-74,-107
76,-11,-25,-73,-108
52,-7,-25,-73,-109
34,-4,-28,-72,-109
25,-2,-33,-73,-110
20,-3,-38,-75,-111
16,-8,-40,-78,-114
9,-18,-39,-81,-119
0,-27,-36,-82,-125
-8,-33,-33,-81,-130
-12,-35,-32,-80,-134
-14,-37,-32,-80,-136
-18,-41,-34,-83,-137
-27,-47,-35,-89,-137
-40,-51,-35,-96,-138
-53,-50,-34,-101,-138
-60,-42,-33,-103,-138
-62,-28,-33,-101,-137
-59,-15,-33,-97,-135
-57,-8,-34,-93,-133
-60,-10,-34,-90,-130
-68,-16,-32,-88,-128
-79,-21,-28,-87,-126
-88,-20,-25,-85,-126
-92,-14,-23,-82,-126
-92,-7,-23,-79,-127
-89,-3,-25,-78,-128
-87,-6,-28,-80,-129
-89,-13,-31,-83,-128
-96,-19,-34,-87,-127
-106,-22,-34,-88,-125
-115,-20,-34,-87,-124
-120,-19,-32,-85,-125
-118,-19,-31,-82,-126
-114,-22,-31,-80,-127
-112,-26,-33,-79,-126
-118,-26,-36,-78,-124
-133,-23,-40,-77,-120
-151,-17,-42,-76,-117
-162,-11,-43,-75,-115
-158,-10,-42,-74,-113
-141,-11,-39,-73,-112
-119,-12,-36,-72,-110
-105,-11,-32,-70,-108
-105,-10,-30,-67,-106
-118,-9,-29,-66,-104
-134,-11,-30,-67,-104
-143,-15,-33,-70,-103
-142,-20,-36,-75,-103
-135,-23,-39,-79,-103
-130,-23,-41,-81,-102
-134,-21,-43,-81,-101
-146,-23,-45,-79,-100
-160,-29,-47,-78,-98
-171,-36,-50,-78,-96
-173,-40,-53,-78,-94
-169,-39,-55,-79,-93
-163,-32,-54,-78,-91
-159,-24,-51,-75,-89
-157,-20,-48,-71,-84
-158,-20,-47,-67,-78
-158,-22,-46,-62,-72
-159,-20,-46,-57,-65
-161,-13,-44,-51,-61
-165,-4,-39,-44,-58
-171,1,-34,-39,-57
-177,-2,-32,-38,-58
-181,-15,-33,-41,-59
-183,-29,-39,-48,-62
-182,-40,-46,-55,-66
-178,-44,-52,-62,-71
-173,-44,-54,-66,-75
-168,-45,-55,-69,-77
-166,-49,-53,-70,-75
-168,-55,-52,-70,-70
-172,-58,-49,-67,-60
-177,-50,-40,-60,-48
-179,-33,-25,-47,-33
-181,-13,-3,-32,-20
-184,3,18,-18,-9
-193,9,33,-12,-6
-206,4,36,-15,-12
-222,-4,25,-25,-24
-233,-11,7,-40,-41
-236,-12,-11,-54,-56
-230,-8,-23,-64,-67
-223,-5,-25,-68,-72
-221,-5,-19,-69,-73
-227,-8,-9,-67,-72
-240,-13,-1,-63,-72
-251,-17,4,-58,-71
-256,-20,6,-52,-70
-253,-24,8,-48,-66
-245,-30,12,-44,-61
-237,-34,17,-41,-56
-232,-35,21,-38,-54
-229,-30,24,-33,-53
-226,-20,25,-26,-56
-220,-11,23,-19,-58
-211,-4,21,-13,-59
-201,-4,18,-10,-58
-193,-6,17,-10,-54
-186,-8,17,-13,-49
-180,-5,17,-17,-43
-173,1,17,-19,-37
-165,8,18,-20,-33
-159,11,19,-19,-30
-154,8,21,-19,-28
-153,3,25,-20,-29
-155,-2,29,-20,-29
-161,-3,34,-19,-28
-167,-3,38,-16,-25
-171,-4,42,-11,-20
-168,-6,45,-5,-13
-157,-9,48,1,-7
-139,-9,51,5,-4
-121,-1,56,8,-6
-111,12,63,10,-11
-112,28,75,12,-20
-125,40,90,14,-30
-141,47,108,17,-40
-151,52,128,20,-49
-151,60,148,25,-58
-140,74,170,30,-66
-128,94,192,37,-73
-123,112,215,45,-77
-130,122,238,52,-77
-148,123,260,60,-70
-169,117,279,67,-58
-187,110,297,76,-40
-198,106,314,87,-17
-204,104,332,101,11
-212,103,351,117,44
-225,99,372,134,82
-245,94,391,151,124
-269,90,406,168,169
-292,90,415,187,215
-309,92,419,205,263
-321,93,417,221,311
-330,86,410,235,363
-340,70,398,246,419
-352,50,381,255,479
-366,30,359,264,541
-381,14,333,276,602
-394,0,304,291,663
-405,-18,271,305,722
-412,-46,235,317,781
-419,-84,197,323,840
-424,-126,158,324,898
-431,-162,120,321,953
-439,-187,87,318,999
-448,-204,60,313,1035
-458,-217,38,306,1055
-465,-231,20,295,1061
-466,-248,2,281,1052
-461,-262,-17,264,1029
-449,-270,-38,245,995
-434,-269,-65,224,951
-417,-263,-97,199,898
-402,-258,-135,168,838
-388,-258,-179,132,774
-374,-262,-227,93,709
-359,-267,-275,58,647
-342,-270,-320,27,589
-326,-270,-359,0,532
-311,-270,-394,-26,473
-297,-273,-424,-56,408
-280,-276,-449,-88,337
-263,-277,-468,-120,263
-244,-271,-479,-147,191
-229,-260,-480,-164,129
-217,-244,-471,-174,80
-210,-231,-454,-178,43
-203,-222,-433,-182,13
-195,-216,-410,-186,-13
-186,-209,-386,-188,-38
-179,-198,-360,-185,-61
-179,-181,-329,-176,-78
-187,-162,-295,-162,-87
-200,-144,-259,-147,-87
-213,-130,-223,-133,-83
-217,-116,-188,-122,-78
-209,-102,-156,-114,-76
-192,-84,-126,-105,-78
-172,-67,-98,-96,-80
-158,-54,-72,-85,-80
-154,-49,-50,-75,-75
-159,-51,-33,-67,-66
-168,-55,-21,-62,-56
-173,-57,-14,-58,-48
-170,-55,-8,-55,-45
-160,-50,0,-52,-45
-145,-48,9,-49,-47
-133,-50,20,-47,-48
-128,-54,29,-45,-48
-130,-55,36,-42,-45
-135,-49,38,-39,-42
-138,-37,38,-36,-41
-136,-23,36,-34,-43
-129,-14,34,-33,-47
-121,-11,32,-34,-49
-116,-10,32,-33,-49
-116,-7,34,-30,-47
-121,2,37,-24,-42
-128,13,40,-17,-40
-134,21,43,-15,-41
-137,20,43,-19,-46
-139,10,40,-29,-56
-142,-3,33,-42,-68
-148,-11,23,-52,-81
-160,-12,12,-55,-94
-176,-8,3,-54,-105
-191,-6,-1,-50,-114
-202,-8,3,-46,-118
-199,-14,13,-42,-115
-179,-16,29,-37,-105
-139,-11,48,-27,-90
-79,2,67,-15,-76
-6,18,81,-3,-65
73,28,91,6,-58
154,31,97,12,-52
233,31,101,16,-45
310,33,104,21,-34
384,43,107,31,-20
451,56,110,42,-7
505,68,113,53,4
538,72,118,60,13
549,66,126,63,23
540,58,138,64,38
520,54,153,68,57
497,57,169,76,80
479,63,182,86,103
467,68,192,97,121
464,66,199,103,134
468,59,202,105,141
478,52,204,103,145
489,49,204,99,146
496,53,200,94,142
495,59,191,90,131
479,62,176,85,113
448,60,157,77,88
399,56,136,66,62
330,55,116,54,36
239,60,99,42,16
123,69,86,33,1
-13,76,77,27,-10
-156,76,72,24,-18
-283,68,69,21,-26
-372,55,67,17,-34
-408,43,66,9,-42
-395,36,65,-2,-50
-347,34,63,-13,-56
-284,33,62,-22,-58
-225,31,61,-26,-58
-176,28,61,-25,-56
-134,26,62,-20,-52
-95,28,64,-11,-50
-58,32,65,-2,-48
-27,36,65,5,-48
-7,37,65,10,-48
2,34,65,12,-48
3,32,64,12,-46
2,35,63,10,-42
4,44,64,9,-36
10,56,66,9,-30
15,66,70,9,-24
14,69,74,10,-22
8,66,77,9,-22
1,59,77,8,-24
0,53,76,6,-26
8,51,74,6,-25
24,50,73,6,-22
43,46,75,9,-19
56,39,78,12,-16
60,30,82,14,-16
56,24,85,15,-19
47,25,88,14,-22
36,33,89,13,-22
26,43,90,13,-19
18,49,92,14,-14
14,51,94,18,-9
16,51,95,22,-7
25,54,94,28,-9
40,61,92,33,-12
55,71,90,37,-15
65,76,91,39,-13
69,72,96,41,-9
69,60,103,42,-3
72,46,110,44,1
80,38,116,45,3
93,38,119,46,4
105,43,119,45,6
111,45,119,42,11
111,38,118,37,17
110,26,117,33,23
116,14,115,30,25
129,12,113,30,22
147,22,111,32,17
162,39,110,34,11
171,54,111,34,9
172,61,112,33,11
171,61,113,33,15
173,60,113,37,19
178,64,111,43,23
184,72,110,52,26
186,80,108,58,29
184,81,107,59,32
184,71,106,54,34
192,55,102,46,35
209,41,96,38,34
234,33,91,33,30
259,33,87,32,27
280,35,85,33,24
295,35,87,34,24
308,30,90,34,26
320,24,92,33,29
333,23,92,34,32
343,29,90,37,36
349,40,88,42,37
350,49,86,45,37
349,54,85,47,35
352,54,84,47,33
358,54,83,48,32
365,59,83,49,33
369,68,84,52,36
369,77,85,55,41
365,80,88,57,46
364,73,90,55,48
370,59,92,51,48
382,44,94,46,46
394,33,95,41,44
403,28,96,38,42
403,27,97,36,42
399,25,97,34,44
397,21,97,34,45
401,19,97,35,47
413,21,96,38,50
431,28,96,42,53
448,38,95,46,56
461,47,95,51,60
469,52,95,54,62
471,54,94,58,63
470,56,91,63,63
468,61,87,68,61
468,68,83,72,61
471,73,81,74,62
480,72,80,74,63
492,65,80,71,64
505,54,82,66,64
516,45,84,63,63
523,40,85,61,63
527,39,86,59,64
529,37,86,57,67
533,33,88,53,72
541,26,90,51,77
553,20,93,51,83
565,19,95,56,88
575,24,96,65,94
581,32,94,75,101
583,41,92,83,108
583,46,89,87,113
583,51,88,88,116
582,56,89,88,117
580,62,91,90,118
579,68,93,94,120
577,70,94,100,125
574,63,92,103,133
573,51,89,105,143
573,37,85,104,152
573,28,81,102,158
573,25,78,101,160
570,25,76,99,159
562,21,75,96,156
549,10,73,90,154
536,-4,70,83,154
527,-15,67,76,154
528,-17,64,73,155
537,-8,61,75,157
549,4,58,80,159
557,14,57,86,162
555,17,57,89,166
545,15,58,89,171
530,13,58,87,177
519,15,58,86,183
515,21,56,85,189
517,24,55,86,195
519,21,53,86,202
513,11,54,86,209
500,-1,55,85,214
482,-8,57,85,217
470,-9,58,85,216
467,-7,57,85,213
473,-10,54,83,211
482,-21,51,80,211
485,-36,48,76,214
477,-47,47,74,220
462,-47,48,76,226
448,-36,50,81,230
441,-22,49,88,231
444,-15,45,92,230
451,-19,37,93,229
454,-29,28,92,230
449,-37,20,91,232
436,-35,16,92,235
422,-22,18,96,238
413,-7,25,101,242
411,1,35,106,249
413,-1,48,110,259
412,-10,60,113,272
405,-18,72,117,287
392,-20,80,122,301
377,-17,86,127,312
365,-15,88,127,319
358,-21,86,120,320
354,-34,80,108,315
349,-50,72,93,307
341,-60,64,81,295
331,-59,56,74,284
320,-50,50,73,275
312,-38,47,77,272
309,-29,47,81,274
309,-25,49,86,280
309,-22,52,90,287
305,-17,56,95,292
294,-12,58,102,295
275,-7,59,111,294
252,-7,59,118,293
229,-12,58,123,291
211,-19,58,123,290
201,-24,59,120,291
200,-24,62,116,293
201,-23,67,113,294
200,-26,71,109,294
194,-35,75,105,292
182,-50,76,101,288
167,-62,76,96,284
154,-66,74,94,279
146,-56,73,95,275
143,-39,73,100,273
142,-20,75,106,272
141,-7,78,112,272
138,-1,80,115,270
135,1,83,115,266
133,4,85,113,260
131,10,87,112,252
128,17,91,111,246
119,20,94,111,242
105,16,97,112,240
88,10,100,113,240
71,4,103,116,240
59,1,106,120,237
52,1,111,123,232
53,-1,115,124,226
58,-6,118,120,218
64,-15,117,111,209
69,-22,113,102,201
71,-22,110,95,193
69,-15,109,93,187
61,-4,113,96,183
49,6,121,101,181
37,11,129,105,181
24,14,135,105,179
14,17,137,101,174
5,25,136,95,164
-2,34,133,90,152
-7,39,131,86,140
-12,38,131,83,132
-17,29,133,82,128
-23,19,136,82,129
-30,14,140,82,131
-39,17,144,82,131
-48,23,147,83,127
-55,27,149,84,122
-62,25,150,86,116
-70,18,150,88,112
-82,14,150,90,111
-96,17,151,92,110
-109,27,154,94,109
-117,41,159,94,107
-119,50,164,93,103
-118,52,169,92,99
-120,50,173,94,98
-129,52,176,99,100
-146,62,179,105,103
-165,80,181,110,107
-181,97,184,111,108
-190,107,187,109,106
-193,104,190,106,100
-195,91,193,104,93
-198,77,196,104,88
-202,69,200,107,86
-205,67,202,110,86
-204,70,202,109,88
-201,70,199,104,87
-201,66,194,96,82
-207,59,188,89,75
-219,56,183,84,66
-235,59,181,84,60
-248,68,182,87,60
-256,78,186,90,64
-259,86,191,93,70
-260,90,196,95,75
-261,92,198,96,75
-263,94,198,97,71
-264,99,195,99,63
-262,105,192,101,56
-260,107,187,101,52
-261,105,183,99,50
-267,98,181,97,49
-278,90,180,95,48
-290,85,179,93,45
-297,83,180,90,41
-297,82,179,88,38
-295,80,178,85,37
-295,78,177,83,38
-301,77,174,82,39
-316,80,171,82,38
-335,88,168,83,35
-351,98,166,83,31
-358,106,164,83,29
-354,108,164,83,30
-343,107,164,84,34
-330,107,165,87,41
-325,109,166,92,48
-329,114,166,97,52
-343,119,165,99,53
-359,118,162,97,52
-372,112,159,93,50
-375,103,154,88,49
-369,95,151,84,47
-357,91,150,82,46
-346,90,151,80,44
-341,87,153,77,42
-343,79,154,72,40
-350,68,153,65,39
-358,58,149,60,37
-362,54,143,57,34
-362,57,137,58,30
-361,66,132,61,25
-360,74,129,63,20
-363,78,127,64,18
-368,80,124,64,18
-373,82,121,65,21
-372,87,118,67,24
-367,95,116,71,25
-358,103,115,75,24
-353,106,116,79,21
-355,103,118,78,18
-364,96,118,75,16
-376,90,117,69,15
-384,86,114,62,13
-382,85,112,55,9
-371,80,110,48,5
-356,71,109,42,0
-345,57,109,37,-2
-343,47,109,33,-1
-349,44,108,31,1
-358,49,107,32,3
-362,60,106,34,3
-358,68,103,36,0
-348,71,100,38,-3
-338,71,98,40,-4
-331,73,96,43,-2
-327,80,95,49,3
-323,92,95,56,7
-315,102,96,62,8
-299,102,96,65,3
-280,92,95,64,-5
-264,76,93,60,-14
-255,61,90,54,-20
-255,53,88,48,-21
-257,51,88,42,-18
-257,51,90,38,-12
-249,47,93,37,-4
-237,40,98,38,4
-226,35,107,45,14
-223,39,121,57,27
-228,53,138,72,41
-234,73,155,87,54
-233,89,167,97,60
-219,96,168,99,58
-194,94,158,93,48
-168,87,139,81,33
-153,83,119,68,20
-154,83,105,58,12
-167,85,100,51,10
-180,85,104,47,11
-183,81,111,45,13
-171,75,116,43,12
-153,70,116,42,10
-139,68,113,44,8
-141,68,110,47,10
-158,66,110,52,15
-184,60,115,54,23
-205,50,121,55,30
-211,42,126,53,34
-203,40,126,52,34
-185,45,123,52,32
-168,53,119,54,28
-160,61,117,57,25
-162,65,117,59,22
-174,67,117,60,20
-189,71,114,58,18
-203,79,107,57,16
-213,88,97,55,12
-219,93,87,54,10
-225,91,82,52,8
-231,80,83,50,7
-243,66,88,47,7
-258,54,94,45,6
-275,49,97,44,4
-290,49,98,45,0
-298,48,96,45,-3
-300,45,94,45,-5
-298,41,93,42,-3
-295,37,94,39,1
-296,39,94,36,6
-303,45,93,35,10
-314,52,91,37,12
-327,56,91,41,12
-337,57,93,44,12
-343,57,96,46,12
-344,63,99,46,13
-341,73,100,46,15
-336,85,99,46,16
-331,92,97,47,16
-329,89,94,47,14
-328,77,93,47,12
-329,62,93,44,10
-329,52,93,40,9
-331,48,92,34,8
-337,49,89,29,7
-349,49,85,25,4
-365,43,82,23,0
-381,34,81,23,-4
-389,26,82,26,-7
-386,22,84,30,-9
-371,25,85,32,-10
-351,32,83,32,-11
-335,39,77,30,-12
-330,46,70,27,-13
-335,53,63,25,-13
-346,61,60,26,-11
-356,68,60,28,-7
-358,74,63,31,-2
-355,74,69,35,4
-349,71,74,37,11
-345,67,78,40,17
-344,68,80,44,24
-345,74,81,49,30
-345,83,83,54,36
-340,87,85,58,39
-332,81,88,58,39
-323,65,90,55,36
-317,45,89,51,32
-315,32,87,49,30
-314,29,83,49,29
-312,36,80,50,31
-306,47,79,52,33
-297,54,80,53,36
-288,56,83,51,38
-281,56,87,50,39
-277,61,89,50,41
-276,73,90,53,44
-276,88,90,58,46
-277,100,89,63,47
-278,102,87,66,47
-280,94,86,65,47
-283,81,85,62,47
-285,72,86,58,47
-284,70,88,54,48
-278,74,91,52,49
-271,78,93,52,50
-264,78,95,53,50
-260,74,97,55,49
-259,69,99,56,47
-259,69,100,57,44
-257,72,100,55,40
-250,75,97,50,36
-240,74,90,43,30
-230,67,77,34,22
-225,58,62,25,14
-227,53,46,17,3
-236,53,33,11,-8
-249,58,26,6,-18
-262,62,25,4,-24
-268,64,29,5,-24
-262,64,38,10,-16
-238,64,51,20,-4
-194,68,66,32,10
-130,74,81,44,20
-48,78,94,54,26
46,78,105,62,30
146,75,116,69,37
244,76,127,78,49
335,84,139,89,65
411,100,149,100,81
468,116,157,107,94
504,123,159,108,102
520,116,157,103,108
521,99,154,98,117
515,83,155,97,131
509,79,161,104,150
509,90,173,118,172
517,113,188,136,192
530,137,202,153,207
546,152,213,165,216
562,154,221,171,222
576,146,227,170,225
589,135,229,165,224
600,126,227,154,219
606,120,217,140,205
600,114,200,122,182
574,105,175,101,150
520,91,143,79,111
435,75,107,56,70
321,60,69,34,28
188,51,33,15,-9
52,47,3,1,-37
-65,48,-17,-5,-53
-148,51,-25,-3,-57
-184,56,-21,7,-51
-173,62,-8,21,-39
-124,71,8,35,-28
-54,79,21,44,-21
20,84,32,48,-17
84,84,39,47,-14
132,80,45,45,-9
165,74,51,45,0
190,71,57,49,9
211,70,61,53,15
231,69,60,54,14
250,66,56,51,5
263,59,51,42,-7
271,51,46,33,-18
272,46,45,27,-23
269,48,46,25,-21
266,53,47,29,-14
264,58,47,34,-8
265,57,44,36,-7
269,52,39,35,-12
276,47,33,30,-21
285,48,29,24,-30
297,56,26,20,-37
310,67,23,18,-40
321,76,21,18,-41
329,76,20,20,-39
333,69,22,24,-36
333,60,27,30,-28
330,57,38,40,-14
328,64,54,54,4
329,75,72,68,24
333,84,88,78,40
342,84,99,80,49
352,75,102,74,49
361,61,98,61,42
365,51,88,45,30
364,46,77,31,19
358,47,66,21,9
352,49,59,15,3
351,51,55,15,1
356,51,54,18,2
367,54,54,24,4
378,60,55,32,8
385,69,55,39,10
385,75,55,43,10
378,76,54,44,9
371,72,53,43,8
368,66,51,42,9
370,63,51,43,12
376,62,52,48,16
382,61,54,53,19
387,56,57,58,20
390,45,59,58,19
396,33,62,55,18
403,27,65,51,20
410,30,68,49,24
413,42,72,49,30
409,55,75,52,36
399,62,77,55,40
386,59,76,56,41
376,51,73,54,39
371,47,69,52,35
369,51,68,50,32
368,64,71,51,31
366,79,76,54,31
363,86,83,58,33
362,82,89,60,37
364,73,93,61,39
364,64,94,60,40
360,61,94,59,38
349,62,93,58,35
335,63,93,58,33
323,57,93,57,33
318,45,92,57,35
320,34,90,56,37
324,30,86,56,37
322,36,81,55,34
311,46,76,53,29
291,55,73,50,25
271,55,72,47,24
258,50,74,44,26
254,46,76,44,30
255,47,78,47,33
256,56,79,50,33
249,67,79,52,31
235,74,80,51,29
217,71,82,48,28
202,63,85,45,31
193,56,87,44,36
188,54,89,48,42
184,57,90,53,47
177,61,91,58,51
166,61,92,60,53
153,57,94,58,54
141,50,97,53,54
133,46,99,48,54
127,47,100,45,53
120,51,100,43,52
111,54,100,43,52
101,53,100,44,52
93,51,101,45,52
90,52,101,46,52
91,57,100,47,53
93,65,98,46,52
92,72,98,44,52
84,71,99,41,52
69,65,102,39,53
52,56,107,39,55
37,52,111,42,58
26,54,113,48,60
21,58,112,52,61
18,60,110,53,59
18,56,106,49,56
19,47,102,42,51
21,37,97,36,47
25,34,93,33,45
31,37,90,33,45
36,44,88,36,46
40,48,87,39,47
39,48,89,40,46
33,45,90,39,45
23,45,90,38,42
8,50,87,37,40
-8,60,83,38,39
-23,69,78,40,40
-34,72,76,43,41
-38,68,77,45,42
-36,60,81,45,43
-30,53,86,44,43
-22,50,89,43,44
-15,50,87,41,46
-13,47,82,40,49
-14,40,75,38,53
-16,31,69,37,55
-19,25,65,37,56
-19,25,63,36,56
-17,31,61,35,56
-15,39,60,34,58
-17,42,59,33,63
-25,40,58,33,69
-37,35,58,34,74
-52,33,60,39,76
-62,37,63,45,75
-66,47,65,50,71
-62,55,65,54,67
-55,56,64,55,65
-52,48,64,54,67
-55,37,66,52,71
-64,28,71,50,75
-75,26,76,49,76
-82,29,79,46,73
-85,31,80,42,70
-86,27,77,36,68
-91,18,74,32,70
-101,9,72,33,77
-115,6,74,39,85
-126,11,77,49,91
-129,20,82,59,94
-124,29,86,64,95
-114,33,87,64,94
-109,33,86,59,95
-112,34,85,53,98
-124,41,84,52,103
-138,53,86,55,106
-148,65,89,61,107
-148,73,94,68,104
-141,73,98,73,99
-133,68,100,75,94
-129,61,98,76,89
-132,58,94,76,85
-140,58,89,74,81
-146,58,85,72,78
-148,54,86,69,76
-147,47,90,65,77
-145,39,95,63,82
-147,34,100,63,88
-152,35,101,65,95
-159,39,99,68,99
-164,44,97,69,99
-165,47,94,67,95
-162,47,94,64,90
-160,47,94,60,84
-162,49,94,57,79
-167,55,92,56,76
-175,61,89,57,75
-181,66,88,60,76
-184,67,90,63,79
-183,65,95,67,84
-181,62,101,71,90
-176,57,104,73,93
-170,52,102,71,93
-163,44,94,66,87
-157,35,84,58,78
-153,26,74,50,67
-155,20,67,43,55
-162,20,64,40,45
-173,25,65,41,36
-183,34,69,45,31
-189,45,78,51,28
-190,57,93,60,29
-186,72,116,71,32
-178,91,150,85,38
-169,113,189,100,43
-162,136,229,113,43
-160,155,264,122,38
-163,164,288,125,26
-170,165,301,123,12
-178,160,306,119,1
-185,155,308,115,-4
-188,152,312,114,2
-191,152,320,117,17
-197,150,333,123,38
-209,144,348,133,61
-228,135,364,147,85
-249,124,379,165,113
-266,114,392,185,148
-277,107,403,206,191
-281,103,410,223,243
-284,98,412,237,300
-291,91,406,247,358
-306,82,394,256,416
-326,70,377,268,472
-345,56,356,282,528
-358,36,333,297,585
-364,11,309,310,645
-365,-19,281,318,705
-366,-52,250,323,768
-373,-84,214,326,830
-387,-112,177,330,893
-407,-136,140,335,953
-430,-160,107,341,1007
-450,-186,80,343,1052
-466,-214,58,341,1083
-475,-240,39,334,1097
-477,-259,21,323,1096
-474,-268,1,309,1081
-467,-268,-21,290,1054
-456,-266,-46,265,1017
-443,-266,-76,232,970
-428,-270,-112,193,914
-411,-274,-154,151,850
-392,-277,-199,112,782
-371,-275,-246,79,718
-349,-272,-291,53,658
-329,-273,-333,29,605
-312,-279,-371,5,553
-299,-289,-405,-24,496
-291,-296,-436,-56,430
-284,-296,-463,-89,356
-276,-287,-483,-118,279
-265,-273,-494,-139,207
-254,-259,-493,-153,146
-242,-251,-483,-162,97
-232,-246,-464,-166,60
-223,-240,-439,-169,29
-212,-229,-412,-172,3
-201,-213,-382,-174,-19
-191,-196,-350,-174,-35
-186,-181,-316,-172,-46
-186,-170,-281,-166,-52
-191,-161,-247,-155,-55
-195,-148,-215,-142,-59
-194,-129,-186,-128,-64
-185,-108,-160,-116,-70
-170,-90,-136,-106,-74
-156,-81,-113,-99,-76
-149,-82,-91,-93,-73
-153,-87,-71,-86,-69
-164,-88,-56,-77,-65
-178,-84,-45,-68,-61
-187,-76,-38,-60,-59
-188,-70,-33,-56,-57
-181,-70,-28,-56,-55
-170,-76,-22,-59,-52
-159,-81,-15,-62,-48
-154,-79,-9,-64,-45
-155,-68,-4,-63,-43
-163,-54,-1,-62,-44
-172,-44,0,-61,-46
-180,-42,2,-61,-51
-185,-45,4,-61,-55
-187,-46,6,-60,-58
-186,-39,7,-56,-59
-184,-24,7,-50,-58
-182,-7,5,-44,-56
-182,3,3,-38,-56
-184,1,3,-35,-56
-188,-9,7,-34,-58
-193,-21,14,-35,-61
-198,-27,20,-35,-64
-199,-27,24,-36,-66
-194,-23,24,-35,-68
-182,-20,22,-33,-68
-168,-20,19,-30,-68
-157,-21,18,-27,-66
-155,-20,20,-23,-63
-160,-16,22,-22,-61
-169,-10,25,-23,-60
-178,-7,26,-26,-62
-183,-8,27,-28,-64
-183,-11,28,-29,-66
-182,-11,31,-27,-66
-181,-5,34,-23,-64
-179,7,37,-19,-62
-177,19,38,-17,-61
-173,24,37,-18,-63
-173,21,35,-20,-67
-178,13,34,-23,-71
-189,6,36,-25,-72
-200,4,39,-24,-71
-204,6,41,-23,-67
-196,8,40,-22,-63
-179,7,37,-21,-59
-161,3,34,-21,-56
-152,-3,33,-20,-54
-156,-6,34,-19,-51
-168,-5,38,-18,-49
-176,-2,40,-16,-47
-172,-1,41,-15,-45
-153,-2,40,-14,-44
-128,-2,38,-13,-43
-112,3,38,-9,-43
-112,16,40,-4,-44
-127,33,43,1,-44
-146,47,46,6,-45
-155,53,47,9,-46
-146,48,47,10,-47
-121,37,46,9,-48
-89,27,45,7,-49
-63,22,45,4,-51
-51,22,46,0,-50
-51,24,48,-4,-47
-57,22,51,-7,-42
-60,16,53,-8,-36
-56,10,55,-7,-31
-46,8,56,-4,-28
-35,12,56,0,-27
-25,19,56,2,-27
-19,26,56,2,-28
-17,29,57,2,-27
-17,29,58,3,-27
-19,31,60,6,-28
-21,37,60,11,-29
-25,48,59,15,-32
-27,58,57,17,-35
-29,62,54,15,-36
-28,57,52,11,-35
-28,46,51,6,-34
-28,36,50,4,-34
-31,32,48,4,-35
-34,32,44,4,-38
-35,32,37,2,-43
-32,28,27,-3,-48
-26,17,16,-11,-55
-23,6,6,-18,-62
-26,0,-2,-23,-70
-37,1,-6,-25,-76
-52,8,-7,-24,-78
-64,15,-3,-21,-76
-71,19,3,-16,-68
-73,21,11,-7,-56
-74,26,22,6,-40
-81,40,35,23,-24
-95,60,46,39,-11
-115,79,54,48,-6
-133,88,54,46,-9
-146,81,46,32,-20
-151,62,31,12,-36
-151,41,13,-8,-52
-151,26,-4,-22,-64
-152,20,-13,-28,-68
-156,19,-14,-29,-65
-160,19,-9,-27,-58
-162,15,0,-26,-53
-162,9,7,-26,-52
-160,4,10,-26,-55
-158,5,8,-26,-60
-155,10,4,-25,-63
-153,16,0,-25,-62
-152,17,-3,-25,-56
-152,14,-4,-24,-48
-152,11,-5,-21,-43
-153,12,-6,-17,-43
-152,18,-8,-13,-48
-149,27,-10,-10,-56
-145,34,-11,-11,-63
-139,36,-11,-13,-66
-134,33,-9,-16,-65
-131,28,-6,-17,-62
-128,23,-3,-17,-59
-124,19,1,-17,-58
-118,14,5,-19,-59
-112,7,8,-24,-61
-108,-1,11,-30,-61
-108,-6,12,-34,-59
-112,-7,12,-34,-55
-115,-3,11,-30,-52
-116,3,9,-25,-51
-112,8,6,-21,-51
-106,9,3,-20,-52
-101,9,0,-19,-54
-102,11,-3,-17,-55
-109,18,-4,-13,-56
-117,27,-5,-9,-58
-121,36,-5,-5,-59
-116,39,-4,-4,-60
-103,36,-4,-6,-58
-86,28,-5,-10,-55
-71,19,-6,-13,-50
-61,12,-8,-16,-46
-56,7,-10,-17,-44
-51,2,-11,-18,-44
-44,-4,-12,-19,-45
-32,-10,-12,-19,-47
-18,-13,-14,-18,-46
-4,-13,-16,-16,-43
10,-10,-18,-15,-38
23,-9,-19,-14,-31
36,-12,-19,-16,-25
49,-19,-15,-18,-20
61,-25,-11,-20,-16
68,-26,-6,-18,-13
71,-18,-4,-13,-11
73,-5,-6,-6,-10
78,6,-11,-1,-9
91,11,-18,0,-9
111,6,-24,-2,-10
134,-3,-29,-6,-11
154,-11,-32,-9,-12
168,-15,-35,-11,-14
174,-16,-38,-11,-17
173,-19,-44,-13,-22
169,-28,-54,-19,-30
161,-43,-65,-30,-40
153,-59,-77,-41,-49
146,-67,-85,-49,-56
145,-65,-87,-51,-56
155,-56,-81,-47,-48
183,-45,-67,-38,-35
229,-37,-48,-30,-19
292,-35,-30,-22,-7
367,-34,-16,-16,1
450,-32,-8,-8,6
541,-25,-4,2,11
637,-18,-1,16,21
737,-13,5,30,37
834,-14,13,43,57
918,-20,23,51,76
977,-25,30,55,92
1006,-29,35,58,104
1009,-29,39,60,117
996,-30,46,65,135
979,-32,58,72,160
968,-37,75,80,189
966,-41,93,89,217
970,-42,108,97,240
974,-41,118,103,254
976,-38,122,109,261
976,-35,122,113,264
976,-34,120,116,266
978,-31,116,116,267
978,-25,110,113,262
971,-16,100,106,251
947,-9,83,96,229
900,-9,58,81,199
825,-19,26,60,164
722,-36,-12,33,127
597,-55,-49,5,93
459,-68,-82,-22,64
324,-72,-105,-41,43
209,-72,-115,-50,32
130,-71,-113,-48,32
94,-75,-100,-39,41
101,-82,-84,-27,58
142,-90,-69,-17,76
200,-94,-58,-10,91
261,-93,-52,-7,101
316,-89,-49,-4,105
362,-87,-49,-2,106
399,-87,-49,0,106
429,-87,-48,4,109
451,-83,-48,8,114
462,-74,-49,13,120
461,-63,-52,17,124
455,-57,-55,20,126
450,-59,-60,20,126
453,-71,-64,18,124
467,-85,-66,15,123
483,-95,-66,12,125
494,-98,-63,10,129
490,-96,-60,10,133
474,-94,-56,8,136
453,-99,-53,4,138
439,-110,-51,0,139
441,-121,-51,-4,140
457,-127,-51,-4,144
480,-124,-51,1,150
500,-115,-48,9,157
507,-105,-45,16,163
501,-101,-41,20,168
488,-102,-38,20,171
478,-104,-36,18,172
476,-103,-37,18,173
483,-97,-38,21,174
494,-89,-39,27,177
501,-83,-37,32,181
499,-82,-32,37,187
488,-85,-25,40,193
473,-88,-18,41,198
463,-89,-14,42,203
463,-89,-11,42,205
472,-91,-10,39,207
486,-96,-9,35,209
494,-104,-6,29,210
494,-112,-1,25,211
485,-114,4,25,211
474,-113,8,27,208
468,-109,8,31,203
472,-107,6,34,196
483,-108,3,34,187
495,-109,-3,31,177
500,-105,-8,27,168
494,-93,-13,26,160
479,-76,-15,30,156
464,-60,-11,38,158
458,-50,0,51,167
462,-46,21,64,182
476,-48,47,77,199
490,-50,72,85,212
496,-51,90,87,216
490,-52,99,81,211
475,-56,96,67,197
459,-64,87,47,180
449,-76,76,26,164
448,-85,68,8,153
451,-86,65,-3,148
451,-79,67,-6,147
443,-68,73,-2,146
427,-56,80,8,145
410,-47,88,20,140
400,-41,95,34,134
399,-33,100,47,129
405,-21,102,57,127
412,-7,102,64,128
413,4,101,67,131
405,7,101,67,134
393,2,104,65,135
380,-7,110,63,134
370,-14,117,62,130
365,-15,124,61,127
362,-11,128,59,125
359,-5,128,55,124
355,-3,126,51,121
351,-4,124,47,117
347,-6,124,46,111
342,-5,126,47,104
334,2,129,48,97
322,11,133,48,93
309,20,137,47,91
299,24,141,45,91
297,26,145,44,89
302,27,148,44,86
309,31,152,47,81
311,38,155,50,75
301,45,157,53,70
283,49,159,55,66
262,49,161,55,64
248,46,162,56,62
247,44,161,56,60
258,45,158,55,56
274,46,156,53,53
286,46,153,51,51
288,43,153,48,52
280,39,154,46,54
267,36,155,45,55
257,37,156,44,54
251,41,155,43,49
249,46,152,40,43
245,48,150,37,37
236,48,150,35,33
223,47,153,36,32
210,50,156,39,33
203,57,159,45,33
205,66,159,49,32
213,74,157,52,30
223,76,152,53,28
226,75,148,51,26
222,71,143,49,26
211,69,140,47,25
200,69,138,45,25
194,69,137,43,24
196,68,137,40,23
201,65,138,37,25
205,60,139,35,29
201,58,140,35,35
192,60,140,36,39
182,63,139,38,41
181,66,137,40,38
192,65,136,41,33
211,64,136,44,28
230,66,137,48,24
236,73,140,55,24
226,85,142,63,27
203,98,145,70,31
177,106,147,77,35
159,107,149,80,38
154,103,150,82,41
157,98,152,81,43
162,97,153,80,45
162,99,155,78,46
154,101,158,75,47
141,98,161,71,46
129,88,163,66,43
119,76,165,62,39
112,67,164,61,34
105,66,162,61,32
96,72,158,64,33
85,81,155,66,37
77,86,154,68,44
73,86,154,68,51
73,85,154,68,55
76,87,155,70,55
76,95,154,73,53
72,106,152,79,51
64,113,148,85,52
54,112,146,88,55
45,103,144,89,59
41,93,143,86,60
40,87,142,82,59
42,88,140,78,54
45,93,136,76,50
47,97,132,73,46
46,95,129,69,45
42,88,127,63,45
35,82,127,57,44
27,80,127,53,41
19,84,127,54,36
11,89,125,58,31
0,90,123,65,29
-13,86,122,71,30
-28,81,122,75,33
-40,81,124,76,36
-48,88,126,75,38
-50,99,126,75,38
-50,109,123,75,36
-50,111,118,77,35
-54,105,113,78,36
-59,97,111,78,39
-61,94,112,78,43
-56,97,116,76,47
-45,104,121,72,47
-31,107,124,68,43
-23,102,125,63,38
-26,91,124,59,33
-38,78,122,56,32
-55,72,120,55,34
-68,73,117,55,37
-74,79,114,54,41
-74,83,110,52,43
-70,82,105,50,42
-66,78,101,48,39
-61,77,98,48,36
-55,84,98,50,34
-45,96,98,53,31
-34,108,99,55,28
-26,112,99,54,24
-28,106,98,53,19
-37,94,99,52,15
-52,83,100,52,13
-66,77,103,54,15
-73,77,105,55,20
-73,77,105,55,24
-69,75,101,53,28
-64,68,96,49,29
-61,60,89,44,30
-60,56,83,41,30
-61,58,79,38,30
-61,64,77,37,30
-59,69,74,35,26
-55,70,72,32,18
-48,66,67,28,7
-41,61,60,26,-5
-37,59,51,24,-14
-40,60,41,24,-17
-51,63,33,22,-15
-67,62,29,21,-11
-81,57,29,20,-7
-86,51,37,22,-2
-80,49,49,28,4
-69,54,65,39,13
-62,62,81,51,25
-66,68,93,57,37
-79,69,98,54,45
-93,62,97,42,44
-98,53,88,24,33
-91,47,74,6,14
-76,45,57,-5,-5
-65,47,41,-9,-20
-66,48,28,-8,-26
-79,46,21,-4,-24
-98,42,21,1,-17
-110,40,26,8,-11
-110,43,33,17,-7
-98,51,40,27,-7
-82,60,44,36,-8
-71,64,43,41,-8
-69,61,41,40,-6
-75,53,38,34,-4
-85,45,37,26,-2
-95,39,39,22,-3
-103,37,44,21,-5
-109,37,49,23,-7
-113,37,54,25,-7
-115,37,58,25,-4
-115,37,60,24,0
-113,39,61,23,3
-111,42,59,23,3
-112,45,57,25,-2
-117,46,54,26,-9
-127,45,53,25,-18
-138,44,53,23,-26
-147,46,53,19,-32
-150,50,53,16,-35
-147,56,52,14,-35
-138,60,48,14,-33
-130,59,44,14,-29
-126,55,40,13,-26
-131,50,37,13,-25
-142,47,36,13,-26
-155,46,35,14,-29
-165,46,34,14,-31
-168,43,32,14,-34
-166,36,30,12,-35
-161,28,30,9,-37
-158,23,31,8,-39
-158,25,34,8,-42
-159,30,37,9,-44
-159,36,39,11,-44
-158,37,38,13,-42
-156,34,36,13,-37
-157,29,32,13,-32
-161,29,29,14,-27
-167,36,28,18,-24
-171,47,28,23,-22
-171,57,28,28,-22
-168,60,27,31,-23
-167,56,26,32,-24
-172,48,24,33,-25
-181,42,22,35,-24
-191,41,21,36,-21
-194,41,20,35,-18
-186,39,21,31,-18
-170,31,20,22,-23
-152,19,20,11,-31
-139,10,18,1,-41
-136,9,18,-5,-48
-139,16,18,-4,-52
-144,28,19,2,-50
-146,37,20,10,-45
-145,40,19,14,-41
-143,38,17,15,-40
-145,36,14,14,-43
-151,37,12,12,-48
-158,43,11,13,-52
-160,50,11,16,-54
-155,54,14,21,-54
-145,53,17,23,-53
-137,48,19,24,-52
-135,43,20,22,-53
-137,40,21,19,-54
-140,36,22,18,-54
-135,30,24,16,-54
-123,21,25,15,-52
-109,11,26,12,-49
-100,6,24,9,-46
-101,8,21,6,-44
-111,18,14,5,-45
-122,28,8,4,-46
-129,33,2,3,-47
-130,30,-1,1,-48
-126,23,-2,-2,-48
-124,18,-2,-5,-48
-125,17,-1,-5,-48
-125,23,-1,-3,-50
-119,30,-3,0,-55
-104,33,-7,1,-62
-84,33,-11,0,-69
-66,30,-14,-3,-74
-57,28,-14,-5,-75
-56,30,-11,-5,-71
-58,32,-5,-2,-63
-56,31,2,0,-56
-49,26,8,-1,-52
-38,17,12,-6,-52
-29,11,13,-11,-56
-25,11,13,-15,-60
-24,17,11,-15,-62
-21,24,8,-11,-63
-11,27,5,-8,-61
5,25,2,-7,-61
22,20,-1,-9,-61
36,17,-3,-12,-62
44,20,-3,-13,-63
46,26,-1,-12,-62
45,32,1,-10,-61
42,31,3,-8,-59
40,25,2,-8,-60
39,16,0,-11,-62
41,9,-3,-13,-63
48,7,-4,-13,-63
61,10,-1,-11,-58
78,12,5,-7,-51
90,12,12,-4,-43
93,10,17,-1,-38
85,10,19,0,-37
70,15,17,0,-40
56,24,13,0,-43
50,33,8,1,-45
56,37,6,3,-43
69,35,5,5,-40
81,30,4,7,-37
86,26,3,8,-37
82,28,0,8,-41
74,34,-6,5,-47
66,41,-14,0,-54
64,43,-22,-5,-57
65,38,-28,-10,-57
66,31,-32,-12,-53
62,23,-33,-11,-50
51,19,-32,-10,-50
36,16,-32,-12,-53
21,14,-33,-16,-59
13,9,-36,-23,-66
13,3,-38,-29,-70
19,-1,-39,-31,-69
29,0,-37,-29,-65
40,6,-33,-24,-60
51,13,-29,-20,-58
62,17,-26,-19,-59
75,15,-26,-22,-63
90,10,-28,-27,-68
103,5,-32,-30,-72
113,5,-35,-30,-74
118,9,-36,-28,-75
119,14,-34,-26,-75
121,17,-31,-25,-75
130,14,-27,-25,-74
147,9,-24,-26,-73
170,5,-23,-25,-71
193,4,-24,-22,-69
207,3,-28,-19,-69
209,2,-32,-17,-70
202,-4,-37,-18,-73
195,-12,-41,-21,-78
198,-20,-44,-26,-82
217,-21,-48,-31,-86
249,-16,-51,-32,-88
283,-7,-54,-29,-86
306,4,-53,-20,-79
311,12,-47,-8,-67
300,16,-34,6,-52
284,19,-17,18,-36
276,21,0,26,-24
284,22,13,28,-22
308,21,16,21,-29
335,15,9,8,-44
354,7,-6,-9,-63
358,-1,-24,-26,-82
348,-7,-41,-41,-97
334,-10,-53,-50,-106
325,-13,-60,-53,-111
327,-17,-61,-51,-112
339,-23,-60,-47,-109
354,-27,-59,-43,-103
369,-27,-58,-40,-95
382,-22,-57,-38,-87
395,-12,-57,-36,-81
408,-3,-57,-33,-78
422,1,-57,-30,-78
432,-1,-57,-26,-82
431,-6,-57,-23,-86
419,-9,-57,-21,-89
401,-7,-55,-22,-88
387,-1,-54,-23,-85
386,4,-52,-24,-80
402,5,-51,-24,-76
430,3,-49,-22,-74
457,1,-47,-18,-73
472,2,-44,-11,-73
471,7,-39,-5,-73
456,11,-34,1,-71
439,11,-30,4,-69
431,4,-29,5,-68
438,-7,-30,3,-68
454,-14,-32,0,-69
473,-14,-32,-1,-70
484,-5,-29,2,-69
484,7,-23,5,-67
476,14,-17,8,-64
468,13,-14,6,-64
467,5,-17,0,-67
472,-4,-25,-10,-73
478,-7,-36,-19,-83
478,-4,-48,-26,-93
467,2,-57,-31,-103
448,7,-63,-33,-111
428,6,-66,-35,-117
418,2,-65,-37,-119
424,-1,-61,-38,-115
449,0,-52,-36,-104
491,2,-40,-31,-90
547,3,-24,-24,-75
615,2,-8,-16,-63
692,-1,7,-10,-55
774,-2,21,-5,-48
860,5,33,2,-40
941,17,44,12,-28
1014,32,54,25,-13
1072,41,62,37,3
1113,41,68,47,16
1134,35,72,52,26
1138,29,76,56,35
1130,28,82,61,47
1114,35,89,69,64
1095,46,99,81,84
1076,55,110,94,106
1058,59,120,104,124
1043,57,129,109,139
1032,54,137,110,149
1025,51,143,108,155
1022,50,147,105,158
1021,48,147,102,157
1017,45,142,99,150
1000,39,129,92,135
961,33,109,80,110
896,29,81,61,76
804,27,48,37,37
688,24,11,9,-4
555,20,-27,-19,-42
414,12,-63,-42,-74
276,3,-93,-58,-97
154,-3,-114,-65,-111
62,-5,-123,-65,-117
10,-4,-123,-60,-117
2,-2,-114,-55,-112
33,-2,-103,-50,-102
88,-4,-92,-45,-90
152,-9,-83,-39,-76
208,-13,-77,-33,-63
249,-17,-72,-28,-55
273,-21,-68,-26,-52
282,-26,-64,-27,-53
283,-31,-62,-30,-58
278,-34,-63,-33,-63
272,-35,-66,-34,-66
264,-32,-70,-33,-67
257,-27,-73,-31,-66
250,-25,-73,-31,-65
241,-27,-71,-33,-64
232,-33,-68,-37,-63
222,-38,-66,-41,-64
212,-38,-67,-41,-65
203,-31,-72,-37,-66
194,-19,-78,-30,-66
184,-8,-82,-23,-65
171,-4,-82,-20,-63
155,-7,-79,-21,-59
141,-15,-74,-25,-56
131,-22,-70,-28,-54
126,-26,-68,-30,-53
125,-26,-69,-29,-54
122,-26,-69,-27,-53
114,-26,-68,-23,-51
100,-28,-66,-20,-48
86,-28,-62,-18,-45
77,-24,-59,-16,-44
78,-17,-56,-16,-46
86,-10,-56,-18,-49
94,-8,-56,-22,-54
93,-11,-56,-26,-60
80,-18,-57,-28,-65
61,-22,-58,-26,-69
43,-21,-58,-20,-74
35,-17,-58,-13,-78
41,-13,-57,-9,-80
53,-15,-55,-10,-82
63,-22,-54,-16,-82
61,-31,-55,-24,-82
48,-37,-60,-31,-83
30,-37,-66,-34,-84
17,-36,-71,-34,-86
15,-35,-73,-33,-87
20,-38,-70,-34,-88
25,-45,-64,-37,-89
21,-50,-57,-39,-90
7,-49,-52,-40,-90
-11,-43,-51,-38,-90
-21,-35,-52,-36,-87
-18,-30,-53,-34,-84
-4,-29,-51,-35,-80
8,-29,-48,-36,-78
9,-27,-42,-35,-78
-5,-19,-35,-30,-80
-28,-7,-27,-22,-82
-48,5,-19,-12,-84
-56,12,-9,-4,-84
-53,15,2,-1,-85
-45,15,15,-1,-89
-43,17,29,-3,-96
-52,25,46,-4,-106
-70,35,66,0,-117
-89,44,92,9,-124
-101,50,123,24,-124
-105,54,158,42,-116
-104,58,194,62,-98
-102,67,229,85,-71
-106,79,262,109,-37
-115,92,292,131,-2
-126,99,316,150,33
-136,98,336,164,65
-143,90,348,170,93
-149,80,353,172,119
-157,71,352,171,148
-172,64,345,172,182
-196,57,336,176,225
-228,47,325,185,277
-261,30,313,199,336
-287,10,300,215,399
-300,-13,284,233,463
-300,-35,265,248,525
-294,-56,241,260,584
-288,-80,213,267,643
-290,-107,180,272,702
-301,-140,145,275,764
-318,-174,107,280,827
-337,-205,67,285,888
-353,-231,29,290,941
-366,-249,-8,291,980
-377,-261,-41,286,1003
-384,-269,-67,276,1010
-386,-273,-86,263,1002
-382,-273,-100,250,984
-371,-270,-110,238,957
-356,-267,-121,223,922
-343,-266,-138,203,874
-335,-269,-162,172,815
-332,-276,-193,131,744
-333,-284,-230,85,668
-334,-291,-270,41,593
-332,-295,-311,4,524
-326,-297,-353,-23,466
-314,-299,-394,-46,413
-296,-302,-431,-67,360
-273,-301,-463,-90,302
-246,-295,-487,-114,238
-218,-282,-499,-137,171
-194,-264,-501,-155,109
-178,-248,-494,-166,56
-171,-238,-481,-173,13
-170,-233,-465,-177,-23
-171,-229,-447,-181,-57
-168,-219,-428,-185,-90
-158,-201,-408,-186,-122
-142,-178,-387,-183,-146
-126,-157,-363,-175,-161
-116,-145,-337,-165,-167
-115,-142,-307,-156,-166
-120,-143,-276,-148,-163
-127,-142,-244,-143,-162
-130,-134,-212,-138,-162
-124,-120,-181,-129,-160
-110,-107,-154,-116,-153
-95,-98,-131,-100,-142
-85,-94,-112,-82,-130
-85,-93,-96,-68,-119
-95,-89,-82,-59,-111
-111,-81,-69,-55,-106
-128,-69,-58,-54,-103
-141,-59,-49,-55,-101
-145,-52,-41,-53,-99
-142,-49,-34,-48,-96
-134,-46,-29,-41,-94
-123,-40,-24,-34,-92
-112,-32,-20,-30,-91
-105,-23,-18,-29,-89
-103,-17,-19,-31,-90
-106,-17,-21,-33,-91
-112,-22,-24,-33,-95
-118,-29,-27,-32,-99
-122,-33,-30,-30,-104
-122,-35,-32,-30,-108
-118,-35,-32,-33,-112
-112,-32,-31,-38,-115
-107,-29,-29,-43,-118
-104,-24,-26,-44,-120
-103,-17,-25,-43,-121
-104,-11,-25,-39,-122
-106,-6,-27,-34,-122
-105,-5,-31,-31,-122
-103,-6,-36,-30,-124
-99,-8,-39,-29,-126
-95,-9,-39,-29,-127
-91,-6,-37,-28,-126
-89,-2,-34,-26,-123
-90,2,-31,-25,-119
-91,2,-29,-24,-115
-90,0,-28,-26,-113
-84,-6,-28,-28,-114
-74,-12,-29,-32,-115
-63,-18,-28,-37,-117
-55,-22,-28,-41,-118
-52,-27,-28,-46,-120
-53,-30,-30,-48,-122
-55,-32,-33,-48,-126
-54,-31,-36,-44,-131
-48,-27,-38,-38,-135
-40,-19,-38,-33,-138
-35,-11,-38,-31,-140
-34,-5,-37,-33,-141
-36,-3,-38,-39,-143
-36,-4,-40,-46,-144
-30,-6,-43,-51,-145
-19,-8,-45,-52,-143
-6,-10,-45,-49,-141
0,-11,-44,-44,-138
-5,-13,-44,-40,-136
-18,-17,-44,-41,-135
-34,-21,-45,-44,-135
-44,-24,-47,-50,-135
-42,-26,-48,-53,-135
-30,-25,-48,-52,-134
-17,-24,-46,-48,-133
-9,-22,-43,-41,-132
-13,-20,-40,-35,-129
-27,-18,-36,-31,-125
-42,-16,-33,-30,-119
-50,-14,-29,-32,-114
-45,-12,-27,-34,-110
-29,-11,-25,-36,-109
-8,-8,-25,-37,-112
9,-4,-27,-38,-117
18,1,-29,-38,-120
15,7,-30,-37,-122
6,10,-30,-36,-122
-4,10,-30,-35,-122
-11,5,-29,-33,-123
-13,-2,-29,-33,-126
-12,-6,-29,-33,-131
-11,-6,-30,-35,-135
-12,-2,-31,-37,-137
-16,2,-32,-39,-136
-23,5,-33,-41,-134
-32,2,-35,-42,-132
-41,-3,-39,-43,-130
-50,-7,-44,-43,-130
-55,-6,-49,-44,-132
-58,0,-53,-44,-134
-58,7,-55,-44,-136
-59,12,-56,-45,-137
-61,12,-54,-45,-137
-65,7,-52,-46,-137
-71,1,-50,-47,-136
-75,-2,-50,-46,-134
-79,-2,-51,-43,-132
-80,-1,-53,-40,-132
-82,-2,-57,-36,-133
-83,-8,-61,-34,-136
-85,-17,-65,-35,-141
-87,-26,-69,-39,-146
-88,-30,-72,-45,-150
-91,-29,-76,-50,-151
-97,-25,-79,-52,-150
-108,-20,-81,-52,-147
-122,-16,-82,-48,-143
-132,-13,-78,-41,-135
-135,-7,-69,-32,-123
-128,2,-55,-20,-108
-115,14,-39,-8,-92
-102,24,-26,1,-81
-97,28,-20,3,-79
-102,23,-25,-3,-89
-114,10,-39,-18,-106
-128,-5,-58,-39,-125
-139,-16,-76,-61,-140
-145,-21,-89,-78,-147
-146,-20,-95,-87,-147
-146,-16,-96,-89,-143
-143,-12,-95,-86,-140
-136,-13,-94,-82,-139
-127,-16,-96,-77,-141
-118,-22,-99,-73,-143
-112,-27,-103,-70,-144
-114,-29,-106,-68,-145
-123,-27,-106,-65,-144
-136,-23,-105,-63,-144
-144,-19,-102,-62,-145
-142,-17,-99,-62,-145
-132,-18,-98,-62,-143
-122,-21,-98,-64,-139
-120,-25,-100,-65,-134
-129,-27,-103,-66,-129
-146,-28,-105,-67,-126
-158,-27,-106,-67,-124
-157,-26,-107,-66,-123
-141,-27,-107,-65,-121
-118,-29,-108,-62,-117
-100,-34,-108,-60,-111
-98,-38,-108,-57,-106
-110,-42,-107,-56,-101
-126,-44,-106,-56,-99
-136,-46,-105,-57,-99
-132,-47,-104,-59,-98
-121,-47,-106,-60,-97
-113,-45,-107,-61,-96
-115,-41,-108,-58,-94
-128,-33,-107,-53,-92
-144,-25,-104,-46,-91
-151,-19,-100,-39,-91
-146,-16,-98,-34,-92
-133,-18,-98,-33,-92
-120,-22,-101,-37,-93
-114,-26,-106,-43,-93
-113,-29,-111,-50,-92
-111,-28,-113,-55,-90
-103,-27,-111,-57,-87
-90,-27,-106,-55,-82
-80,-29,-100,-51,-76
-81,-33,-95,-46,-70
-95,-36,-93,-42,-66
-117,-38,-95,-39,-61
-139,-38,-100,-38,-56
-152,-38,-105,-39,-51
-152,-40,-109,-41,-47
-143,-42,-110,-43,-45
-130,-45,-110,-45,-45
-117,-46,-110,-47,-48
-107,-45,-112,-49,-51
-101,-43,-116,-53,-53
-98,-43,-120,-56,-54
-99,-43,-123,-59,-52
-100,-46,-125,-59,-49
-102,-48,-124,-57,-45
-102,-49,-123,-53,-41
-100,-49,-123,-49,-37
-97,-51,-124,-49,-34
-95,-54,-127,-51,-33
-91,-60,-131,-55,-33
-85,-66,-133,-59,-34
-77,-71,-133,-60,-35
-69,-72,-132,-59,-36
-61,-73,-132,-56,-35
-58,-75,-133,-54,-33
-56,-79,-137,-54,-30
-53,-84,-142,-54,-27
-44,-87,-146,-53,-24
-28,-86,-146,-49,-22
-9,-80,-144,-43,-19
9,-72,-141,-35,-17
22,-67,-139,-30,-16
33,-66,-139,-29,-15
45,-69,-143,-33,-14
60,-74,-147,-38,-10
77,-78,-149,-42,-4
91,-81,-149,-43,3
100,-82,-148,-43,9
103,-84,-146,-42,14
107,-86,-145,-42,15
117,-88,-145,-43,17
136,-88,-145,-43,21
160,-88,-145,-43,28
183,-87,-143,-39,37
202,-88,-141,-34,46
217,-92,-139,-30,52
231,-98,-137,-27,53
250,-103,-138,-26,53
272,-103,-140,-27,54
296,-99,-142,-27,60
317,-92,-145,-26,71
333,-86,-148,-25,82
344,-85,-151,-25,90
354,-89,-153,-27,91
365,-96,-154,-31,87
378,-101,-155,-35,82
389,-104,-155,-37,80
397,-103,-153,-37,83
404,-102,-150,-35,88
410,-103,-148,-33,93
419,-108,-146,-33,94
431,-115,-146,-35,91
442,-121,-147,-39,86
447,-124,-149,-42,83
445,-123,-151,-43,84
435,-121,-153,-42,89
424,-119,-155,-41,95
416,-119,-158,-39,99
417,-122,-161,-39,99
424,-126,-165,-42,96
434,-130,-169,-45,93
441,-134,-172,-50,91
440,-136,-173,-54,92
432,-136,-175,-58,94
421,-135,-176,-61,95
409,-133,-180,-63,95
398,-132,-186,-63,94
389,-134,-193,-62,92
382,-139,-199,-61,93
375,-147,-202,-61,95
370,-156,-204,-63,98
368,-163,-205,-66,100
369,-168,-207,-70,98
371,-171,-211,-74,94
372,-173,-215,-75,88
371,-174,-218,-73,83
367,-176,-216,-70,80
358,-176,-211,-65,80
347,-174,-204,-59,85
336,-167,-195,-53,93
329,-158,-185,-46,105
328,-148,-174,-37,119
335,-140,-162,-29,133
345,-134,-150,-23,145
352,-132,-140,-21,149
350,-133,-136,-26,145
337,-135,-139,-37,132
317,-137,-147,-51,114
300,-141,-158,-65,96
293,-145,-166,-75,84
299,-148,-168,-79,79
312,-151,-165,-79,80
323,-151,-158,-77,83
326,-150,-149,-73,85
320,-148,-142,-71,85
311,-146,-137,-68,84
304,-143,-132,-64,82
302,-139,-129,-58,83
304,-132,-125,-49,86
306,-123,-122,-39,89
302,-115,-118,-29,91
292,-108,-113,-23,92
279,-105,-106,-21,90
266,-104,-98,-22,88
259,-102,-89,-23,85
257,-99,-81,-23,82
261,-94,-75,-23,77
265,-90,-71,-23,71
265,-88,-68,-24,66
259,-91,-64,-26,62
246,-97,-59,-30,60
227,-101,-52,-34,60
208,-103,-46,-36,59
192,-101,-41,-36,59
181,-97,-37,-34,57
174,-91,-35,-31,54
168,-84,-32,-27,50
160,-75,-28,-23,45
148,-66,-23,-19,38
133,-56,-17,-17,31
117,-47,-11,-17,24
102,-42,-6,-17,19
90,-40,-3,-19,16
79,-40,-2,-20,14
68,-40,-4,-20,14
55,-38,-6,-20,14
38,-36,-7,-19,12
19,-33,-5,-18,10
-1,-32,2,-17,8
-18,-32,12,-15,7
-31,-33,23,-13,8
-40,-33,32,-11,10
-48,-33,36,-10,11
-58,-33,37,-11,9
-71,-33,34,-14,3
-84,-33,31,-19,-6
-97,-32,27,-24,-17
-109,-29,21,-30,-28
-123,-25,14,-35,-39
-141,-20,5,-40,-49
-165,-14,-3,-44,-57
-188,-9,-6,-44,-63
-200,-2,-2,-42,-65
-193,4,10,-36,-63
-164,10,25,-29,-60
-115,15,39,-21,-56
-54,17,48,-16,-53
14,17,53,-11,-51
87,16,57,-8,-47
167,14,62,-3,-40
251,13,72,2,-29
332,12,85,7,-16
399,10,96,10,-6
439,7,103,13,1
446,6,105,15,5
427,8,104,21,10
393,15,106,31,20
358,27,113,44,37
332,41,123,58,59
317,53,135,70,80
311,60,145,78,96
310,61,152,83,105
314,60,155,88,109
323,58,156,91,110
337,59,156,94,110
351,63,156,93,108
359,65,153,88,102
348,63,145,78,90
313,56,129,62,69
247,43,105,42,39
153,29,74,20,4
36,18,38,-4,-33
-92,10,2,-26,-67
-220,6,-28,-44,-95
-335,4,-49,-56,-114
-426,2,-58,-59,-122
-486,2,-54,-53,-122
-511,6,-43,-43,-115
-502,15,-28,-31,-103
-467,27,-15,-22,-91
-413,39,-6,-17,-79
-350,47,-1,-17,-72
-288,49,0,-18,-68
-237,46,2,-20,-68
-203,40,5,-20,-70
-188,35,9,-20,-71
-188,32,14,-20,-70
-192,30,16,-21,-68
-194,28,15,-25,-66
-187,23,11,-29,-66
-172,18,6,-32,-66
-156,13,4,-32,-65
-146,11,5,-28,-63
-144,11,10,-21,-59
-148,15,16,-13,-54
-153,19,21,-9,-50
-154,22,22,-10,-50
-150,25,21,-14,-54
-147,28,19,-19,-58
-150,31,18,-21,-63
-162,35,18,-19,-65
-181,40,20,-14,-65
-198,46,22,-9,-63
-207,51,23,-6,-61
-204,54,23,-7,-60
-194,54,24,-10,-59
-184,51,27,-14,-59
-183,47,30,-18,-59
-191,41,33,-20,-59
-204,36,33,-22,-61
-216,30,30,-24,-63
-219,24,24,-26,-64
-214,16,17,-28,-65
-207,9,13,-30,-64
-204,5,13,-30,-63
-210,5,16,-30,-61
-221,11,21,-28,-60
-232,22,24,-27,-59
-237,34,25,-24,-58
-234,43,24,-21,-57
-225,47,22,-16,-57
-217,47,20,-10,-56
-215,44,20,-4,-56
-221,41,21,-1,-56
-232,40,22,0,-57
-244,40,23,-3,-60
-253,40,23,-8,-64
-259,38,20,-14,-69
-260,34,16,-19,-76
-260,29,11,-23,-81
-259,24,7,-24,-83
-259,19,5,-24,-82
-262,16,9,-22,-77
-267,13,16,-19,-72
-272,13,25,-15,-67
-275,14,32,-12,-65
-277,18,34,-12,-68
-278,23,29,-15,-73
-280,28,20,-22,-79
-284,30,12,-30,-84
-292,30,8,-35,-85
-301,29,9,-36,-81
-310,30,15,-28,-72
-314,35,24,-13,-59
-314,44,36,7,-45
-310,55,49,27,-30
-304,62,61,40,-20
-299,62,70,42,-15
-296,53,71,32,-18
-298,39,62,14,-26
-304,25,46,-8,-39
-312,15,27,-28,-51
-322,10,12,-41,-61
-330,9,6,-48,-65
-334,10,9,-49,-66
-332,12,17,-46,-64
-325,15,24,-42,-61
-315,20,25,-37,-59
-307,29,22,-32,-57
-302,38,15,-26,-57
-302,45,9,-22,-57
-306,48,7,-18,-57
-311,49,8,-16,-59
-316,48,9,-15,-60
-317,50,10,-15,-61
-314,53,9,-13,-60
-307,55,8,-10,-57
-298,53,8,-8,-54
-286,46,10,-7,-52
-273,33,13,-9,-51
-261,19,14,-14,-52
-251,9,14,-20,-54
-246,3,12,-26,-53
-245,3,8,-30,-50
-248,4,6,-31,-46
-251,6,4,-30,-42
-251,9,5,-28,-39
-248,13,5,-26,-39
-244,18,5,-23,-40
-240,25,3,-21,-43
-238,31,1,-19,-45
-238,36,0,-19,-46
-237,38,1,-18,-47
-233,39,3,-17,-46
-226,40,6,-14,-45
-219,42,8,-12,-43
-216,42,9,-10,-41
-220,40,8,-11,-38
-228,35,9,-15,-35
-236,27,11,-22,-33
-238,19,15,-29,-32
-231,14,19,-34,-31
-219,11,21,-36,-32
-206,10,19,-35,-34
-198,8,14,-34,-36
-194,7,8,-34,-37
-191,6,4,-34,-38
-187,8,5,-33,-37
-179,14,10,-29,-35
-172,24,17,-22,-32
-168,34,22,-12,-29
-169,44,25,-3,-27
-175,51,24,2,-26
-177,56,23,3,-26
-171,58,22,1,-27
-156,59,23,1,-29
-139,56,24,2,-31
-127,51,26,5,-31
-126,42,26,6,-30
-137,34,23,4,-28
-151,27,20,-1,-26
-159,22,16,-7,-25
-155,20,14,-11,-24
-140,18,13,-12,-24
-122,17,15,-10,-24
-110,17,19,-7,-24
-107,19,24,-7,-24
-112,23,27,-8,-24
-117,30,27,-10,-25
-115,37,26,-10,-25
-103,42,23,-7,-24
-86,43,23,-3,-21
-71,43,25,2,-15
-64,43,30,4,-10
-67,45,34,5,-6
-76,47,37,5,-6
-84,48,37,5,-7
-89,47,35,6,-9
-89,43,34,6,-9
-88,40,34,7,-8
-90,38,38,5,-5
-93,39,41,2,-3
-93,40,43,-2,-1
-86,38,42,-6,-2
-72,32,37,-9,-5
-54,23,30,-9,-9
-40,16,25,-7,-14
-36,13,22,-4,-20
-42,15,22,-1,-25
-52,21,23,0,-30
-60,25,22,-2,-34
-61,27,18,-7,-37
-58,28,11,-11,-39
-55,30,5,-12,-39
-58,38,3,-10,-36
-66,49,7,-4,-30
-76,58,15,1,-23
-81,60,26,3,-17
-77,52,33,2,-14
-69,36,35,-3,-15
-63,20,32,-9,-17
-66,9,26,-13,-19
-77,7,21,-14,-20
-91,11,20,-13,-19
-98,18,22,-11,-18
-95,22,26,-10,-19
-83,22,28,-9,-23
-69,22,28,-7,-27
-61,24,24,-5,-30
-63,28,20,-1,-29
-73,34,18,4,-24
-84,40,17,9,-15
-91,43,19,14,-8
-91,44,21,17,-4
-88,43,21,18,-6
-86,42,19,18,-11
-91,39,15,16,-17
-99,37,13,15,-19
-107,35,12,13,-16
-107,33,14,13,-11
-97,31,16,13,-5
-79,29,17,13,-4
-62,26,17,11,-7
-51,21,15,7,-14
-52,15,14,4,-21
-60,10,14,2,-25
-71,8,15,2,-24
-78,10,18,4,-20
-79,16,19,6,-15
-77,22,18,6,-14
-75,26,15,5,-16
-78,28,11,3,-21
-87,29,8,2,-26
-99,32,5,3,-30
-110,35,2,5,-32
-116,38,-1,6,-32
-116,37,-5,4,-32
-111,31,-9,-2,-34
-103,20,-11,-9,-36
-97,9,-10,-16,-40
-94,1,-8,-19,-44
-93,-2,-6,-18,-48
-95,0,-7,-16,-51
-98,2,-10,-15,-52
-104,1,-16,-16,-51
-112,-3,-23,-20,-49
-123,-7,-29,-25,-47
-134,-7,-31,-26,-47
-141,-3,-28,-23,-47
-140,7,-21,-14,-46
-133,19,-9,-2,-42
-124,29,5,10,-35
-118,35,18,20,-27
-123,37,27,23,-20
-136,37,30,21,-17
-152,34,26,13,-20
-165,30,16,1,-27
-169,24,4,-13,-36
-167,15,-9,-27,-44
-165,4,-19,-40,-49
-170,-6,-26,-50,-52
-184,-12,-29,-56,-55
-201,-15,-30,-57,-58
-212,-15,-31,-56,-63
-211,-13,-33,-53,-68
-198,-11,-36,-50,-74
-181,-10,-40,-48,-78
-169,-7,-41,-45,-79
-167,-2,-40,-42,-79
-176,5,-37,-37,-76
-187,11,-31,-31,-72
-192,14,-27,-26,-69
-186,14,-26,-22,-68
-170,10,-28,-20,-69
-152,7,-34,-21,-71
-140,6,-39,-22,-72
-141,8,-43,-24,-72
-154,9,-44,-25,-70
-175,9,-42,-27,-67
-195,5,-39,-29,-65
-208,-1,-37,-33,-67
-209,-8,-36,-40,-71
-202,-14,-38,-47,-77
-191,-21,-42,-54,-82
-184,-27,-48,-58,-86
-184,-33,-53,-59,-87
-193,-36,-57,-57,-88
-205,-35,-60,-53,-90
-214,-28,-61,-49,-92
-214,-18,-61,-45,-95
-206,-7,-61,-41,-97
-194,1,-59,-39,-97
-186,5,-58,-36,-93
-186,6,-55,-35,-87
-192,6,-53,-35,-81
-201,6,-52,-37,-77
-205,6,-51,-40,-75
-201,4,-50,-43,-75
-192,0,-48,-45,-75
-182,-6,-45,-45,-74
-175,-12,-41,-44,-71
-173,-18,-38,-44,-67
-174,-22,-37,-47,-64
-172,-25,-38,-52,-63
-168,-28,-41,-60,-63
-163,-30,-44,-66,-63
-162,-29,-44,-68,-63
-166,-25,-41,-66,-63
-174,-17,-35,-60,-62
-181,-7,-28,-53,-63
-181,2,-23,-46,-65
-170,8,-21,-41,-68
-151,10,-22,-37,-70
-130,10,-26,-33,-70
-116,8,-30,-29,-69
-112,5,-32,-26,-68
-116,2,-33,-27,-67
-121,-1,-32,-31,-68
-119,-7,-30,-37,-70
-105,-14,-29,-42,-70
-84,-20,-28,-44,-69
-64,-24,-27,-43,-67
-52,-26,-25,-41,-63
-53,-24,-22,-38,-59
-62,-21,-19,-35,-54
-69,-18,-15,-33,-50
-65,-16,-12,-30,-45
-49,-14,-11,-26,-41
-21,-11,-11,-23,-39
9,-8,-12,-21,-41
35,-5,-13,-23,-46
55,-1,-15,-28,-54
68,2,-16,-32,-62
77,4,-16,-35,-66
81,6,-17,-34,-65
84,9,-18,-31,-61
87,10,-20,-29,-57
94,9,-21,-29,-55
109,4,-20,-31,-59
129,-4,-18,-36,-66
151,-14,-15,-40,-73
168,-22,-12,-41,-79
177,-27,-11,-41,-79
180,-27,-13,-41,-75
183,-24,-15,-41,-70
193,-20,-17,-41,-66
212,-15,-18,-42,-66
237,-9,-17,-43,-69
260,-4,-15,-42,-74
274,2,-14,-40,-78
278,6,-15,-38,-80
277,8,-17,-37,-78
277,7,-19,-36,-75
283,6,-20,-36,-73
296,4,-19,-36,-73
313,4,-17,-37,-75
328,4,-13,-39,-78
339,2,-11,-41,-81
344,-2,-11,-45,-82
345,-9,-13,-48,-80
346,-18,-17,-52,-75
347,-26,-21,-54,-71
350,-32,-25,-55,-68
355,-34,-29,-54,-69
359,-33,-31,-54,-72
363,-31,-33,-53,-78
367,-30,-35,-51,-83
371,-29,-38,-51,-85
375,-30,-43,-51,-85
377,-30,-49,-52,-85
377,-30,-55,-54,-86
371,-29,-62,-57,-90
363,-28,-67,-60,-94
355,-27,-70,-62,-99
351,-26,-71,-62,-101
354,-26,-70,-63,-100
365,-26,-70,-64,-98
378,-29,-72,-66,-96
389,-33,-77,-70,-96
392,-38,-83,-73,-96
388,-43,-87,-76,-95
377,-49,-89,-77,-92
364,-54,-87,-77,-87
350,-57,-83,-76,-80
336,-59,-76,-74,-73
321,-59,-71,-73,-67
303,-57,-67,-70,-65
286,-52,-66,-68,-66
270,-47,-66,-67,-68
259,-44,-66,-66,-72
255,-43,-67,-67,-74
257,-44,-67,-67,-76
264,-45,-68,-67,-76
272,-44,-69,-64,-75
279,-40,-70,-59,-74
281,-36,-71,-55,-72
275,-33,-70,-54,-71
262,-33,-69,-56,-69
245,-38,-68,-62,-66
228,-46,-66,-68,-64
215,-55,-64,-74,-63
206,-62,-61,-77,-62
200,-66,-59,-78,-64
194,-68,-56,-77,-66
189,-68,-53,-76,-68
186,-65,-49,-74,-67
188,-59,-45,-73,-65
194,-50,-41,-70,-63
201,-40,-38,-66,-62
202,-33,-37,-62,-65
195,-30,-36,-59,-71
180,-32,-36,-56,-78
164,-37,-36,-55,-84
154,-41,-36,-56,-86
152,-43,-35,-57,-84
155,-42,-34,-57,-77
157,-41,-31,-54,-68
155,-39,-25,-48,-56
149,-38,-15,-37,-42
145,-35,0,-24,-27
147,-28,16,-12,-11
153,-21,29,-7,2
158,-14,36,-12,8
155,-13,35,-27,5
144,-19,26,-48,-7
127,-30,14,-69,-24
114,-39,3,-83,-38
108,-44,-5,-88,-47
109,-40,-9,-84,-50
110,-32,-10,-74,-48
103,-22,-8,-62,-45
85,-15,-6,-50,-45
61,-13,-3,-41,-47
38,-13,0,-34,-49
24,-14,5,-29,-50
20,-13,10,-28,-49
20,-10,15,-29,-45
17,-7,19,-32,-43
9,-4,22,-34,-44
-5,-1,27,-34,-49
-19,2,34,-32,-59
-30,6,45,-28,-72
-38,12,63,-24,-86
-42,20,87,-23,-99
-47,29,118,-22,-108
-52,40,151,-19,-113
-56,51,181,-13,-114
-58,62,205,-3,-111
-61,72,222,10,-105
-66,81,233,24,-94
-76,88,243,37,-79
-92,95,255,50,-60
-110,100,272,63,-38
-125,104,292,77,-12
-135,105,311,91,15
-142,101,323,104,44
-149,92,326,115,73
-163,77,320,122,105
-186,59,309,128,142
-216,40,296,135,185
-249,20,286,145,238
-276,-1,278,158,300
-290,-22,274,174,369
-284,-44,270,190,443
-257,-67,262,207,516
-206,-90,248,222,584
-136,-111,226,235,649
-56,-131,199,248,712
25,-149,170,261,779
97,-166,142,272,850
154,-183,118,282,924
199,-200,98,290,993
232,-217,78,294,1047
256,-233,56,294,1083
271,-247,34,292,1101
272,-257,12,286,1106
257,-264,-4,279,1103
228,-267,-14,270,1094
195,-269,-21,256,1077
170,-269,-31,237,1048
159,-271,-51,211,1003
167,-274,-82,180,945
188,-279,-122,146,882
213,-285,-166,113,818
233,-292,-210,80,757
244,-298,-252,47,697
244,-304,-294,9,632
233,-306,-338,-35,554
207,-304,-385,-83,463
159,-298,-434,-132,361
81,-290,-479,-176,255
-30,-280,-516,-210,156
-166,-269,-539,-233,69
-311,-258,-549,-247,-1
-442,-247,-545,-254,-55
-539,-234,-527,-255,-93
-591,-222,-500,-251,-118
-596,-212,-463,-244,-131
-568,-203,-421,-232,-135
-520,-195,-376,-219,-132
-468,-185,-331,-205,-128
-418,-173,-289,-192,-125
-374,-158,-250,-181,-126
-335,-144,-215,-171,-131
-304,-133,-184,-161,-137
-284,-126,-158,-151,-139
-279,-124,-136,-140,-137
-289,-122,-117,-129,-131
-308,-117,-101,-118,-122
-326,-107,-85,-107,-114
-336,-95,-69,-97,-107
-335,-82,-54,-88,-102
-328,-72,-40,-81,-97
-322,-65,-30,-76,-92
-324,-59,-25,-74,-89
-334,-54,-23,-74,-87
-347,-49,-23,-75,-87
-358,-46,-21,-76,-89
-363,-46,-17,-77,-91
-360,-50,-12,-79,-91
-353,-55,-8,-83,-90
-344,-60,-6,-87,-89
-335,-61,-7,-91,-90
-329,-60,-10,-94,-93
-329,-58,-13,-94,-97
-338,-55,-13,-90,-101
-357,-53,-10,-84,-102
-381,-51,-6,-77,-102
-401,-46,-1,-71,-100
-410,-38,0,-66,-100
-405,-29,-1,-64,-101
-391,-18,-2,-62,-104
-376,-9,-2,-59,-106
-370,-2,1,-54,-107
-375,2,7,-49,-107
-386,3,13,-45,-107
-395,1,16,-44,-108
-394,-3,13,-47,-110
-386,-8,5,-53,-112
-374,-15,-2,-59,-113
-367,-22,-5,-64,-111
-368,-27,-3,-65,-108
-374,-31,4,-65,-103
-382,-32,11,-64,-101
-384,-32,15,-64,-100
-381,-29,16,-65,-102
-373,-25,14,-68,-104
-365,-18,12,-71,-105
-360,-10,12,-71,-104
-361,-2,14,-67,-102
-363,4,16,-60,-99
-365,8,18,-50,-96
-364,11,18,-41,-95
-360,13,18,-33,-95
-355,16,18,-29,-96
-353,19,18,-30,-96
-355,20,18,-35,-96
-359,18,18,-43,-95
-363,13,17,-50,-93
-364,6,16,-53,-90
-361,0,16,-52,-88
-360,-4,17,-47,-85
-362,-4,18,-44,-83
-370,-3,19,-44,-82
-380,-2,17,-49,-83
-386,-1,14,-55,-85
-383,1,10,-59,-88
-369,6,8,-57,-90
-348,13,8,-50,-89
-327,21,12,-41,-86
-314,27,14,-35,-83
-311,29,13,-34,-82
-317,27,7,-38,-87
-328,23,-3,-42,-95
-338,19,-13,-45,-104
-343,15,-20,-47,-110
-341,12,-22,-47,-112
-331,9,-18,-49,-109
-317,6,-10,-50,-103
-300,2,-1,-49,-95
-285,-1,9,-43,-85
-277,-1,21,-33,-75
-278,1,35,-21,-65
-289,3,48,-12,-56
-305,5,57,-11,-51
-320,5,59,-20,-53
-327,4,52,-35,-60
-322,3,39,-52,-73
-307,2,22,-65,-86
-288,2,8,-73,-98
-274,2,-1,-75,-107
-271,4,-4,-73,-112
-277,6,-4,-70,-115
-287,10,-2,-65,-116
-293,14,-1,-60,-115
-291,16,-1,-55,-112
-281,17,0,-51,-106
-268,14,1,-49,-100
-261,9,4,-50,-94
-262,2,7,-52,-91
-272,-3,10,-55,-90
-285,-6,11,-57,-90
-294,-8,11,-58,-88
-294,-8,9,-56,-85
-286,-7,7,-53,-79
-272,-7,5,-49,-72
-260,-5,4,-44,-65
-253,-2,6,-39,-59
-253,4,9,-32,-54
-259,10,13,-27,-50
-265,17,16,-23,-47
-266,25,19,-20,-45
-261,31,22,-18,-43
-250,36,24,-17,-40
-239,37,27,-15,-37
-232,34,29,-14,-33
-232,27,32,-15,-29
-238,17,33,-18,-25
-245,7,33,-22,-22
-250,-1,32,-26,-20
-249,-5,30,-28,-21
-245,-5,29,-28,-22
-241,-2,30,-25,-23
-241,1,31,-22,-22
-243,3,34,-20,-19
-246,5,37,-19,-14
-244,6,40,-18,-8
-236,8,43,-14,-5
-224,13,46,-9,-5
-214,19,48,-4,-8
-210,25,49,-1,-13
-212,31,50,1,-18
-216,35,50,1,-20
-219,37,48,2,-18
-216,36,47,5,-14
-208,33,45,9,-8
-198,28,43,13,-2
-189,23,43,14,4
-183,19,42,14,10
-182,15,43,11,14
-184,12,44,9,16
-185,9,45,7,16
-185,5,45,6,14
-183,2,45,5,12
-179,1,44,4,12
-172,3,44,3,13
-165,7,43,2,17
-159,13,44,3,19
-156,16,44,4,20
-158,18,44,6,17
-161,18,42,6,13
-163,18,40,5,10
-160,21,36,5,9
-152,25,33,4,11
-142,28,30,4,13
-136,28,28,1,13
-139,22,26,-3,10
-149,14,23,-9,7
-162,6,19,-13,6
-170,2,16,-14,9
-170,2,13,-11,15
-160,3,14,-6,21
-144,2,16,-1,26
-129,-4,19,0,29
-119,-13,21,-1,30
-113,-20,19,-5,30
-109,-23,13,-8,32
-105,-20,6,-9,34
-101,-15,0,-10,36
-100,-10,-5,-11,36
-104,-8,-7,-12,35
-114,-9,-7,-13,34
-124,-8,-7,-13,32
-128,-4,-7,-9,31
-122,3,-8,-3,29
-108,8,-9,2,28
-95,9,-10,5,27
-88,3,-10,4,27
-91,-8,-11,0,29
-100,-20,-12,-3,34
-106,-28,-13,-4,40
-103,-31,-14,-4,48
-92,-32,-15,-3,54
-79,-32,-16,-4,58
-71,-34,-15,-8,61
-70,-38,-16,-12,61
-72,-42,-16,-16,60
-71,-41,-19,-17,59
-62,-36,-22,-16,57
-49,-28,-25,-12,56
-39,-19,-28,-9,56
-39,-14,-30,-6,57
-50,-12,-31,-3,60
-68,-14,-31,-1,64
-83,-19,-31,1,69
-89,-25,-30,2,73
-87,-30,-30,2,76
-81,-35,-30,0,78
-77,-38,-31,-2,80
-77,-41,-32,-2,83
-80,-43,-34,-1,86
-82,-45,-38,1,90
-83,-49,-44,3,93
-84,-54,-50,3,95
-87,-60,-56,-1,95
-93,-65,-60,-7,95
-99,-66,-62,-11,96
-99,-63,-62,-13,98
-92,-58,-62,-12,101
-79,-54,-61,-10,103
-66,-51,-60,-8,103
-59,-51,-61,-7,101
-60,-51,-62,-7,99
-68,-50,-63,-4,100
-79,-46,-63,1,105
-89,-43,-64,6,113
-96,-43,-63,10,122
-102,-50,-63,9,127
-108,-61,-64,3,129
-115,-72,-65,-6,129
-122,-81,-68,-14,128
-127,-85,-71,-19,130
-129,-85,-74,-21,132
-129,-87,-77,-22,133
-127,-90,-79,-25,131
-126,-95,-81,-30,126
-125,-98,-83,-35,120
-124,-97,-84,-37,117
-122,-92,-85,-36,117
-123,-84,-86,-32,120
-127,-77,-87,-27,124
-135,-74,-89,-25,126
-148,-74,-93,-24,126
-160,-77,-100,-24,124
-169,-81,-107,-25,122
-173,-85,-114,-25,122
-172,-89,-119,-26,123
-169,-94,-120,-25,127
-165,-98,-117,-22,134
-162,-97,-110,-16,145
-159,-93,-99,-5,162
-158,-85,-84,8,183
-158,-79,-69,19,204
-161,-78,-55,23,218
-168,-82,-48,20,221
-178,-88,-49,9,213
-186,-92,-58,-6,195
-190,-91,-72,-21,175
-188,-85,-88,-31,158
-181,-80,-100,-37,149
-172,-77,-106,-39,148
-165,-78,-105,-39,151
-159,-80,-101,-37,154
-155,-79,-96,-32,153
-150,-76,-92,-26,148
-147,-71,-89,-19,141
-147,-70,-87,-13,135
-152,-75,-86,-10,130
-161,-85,-85,-10,129
-167,-95,-84,-14,131
-166,-100,-84,-18,132
-155,-100,-83,-21,133
-140,-96,-82,-22,132
-129,-91,-79,-21,130
-131,-88,-75,-20,125
-144,-88,-70,-18,120
-161,-86,-66,-16,115
-171,-80,-64,-14,110
-166,-72,-64,-13,103
-148,-63,-65,-13,95
-125,-57,-67,-14,87
-107,-53,-67,-14,79
-100,-52,-67,-14,73
-101,-49,-65,-12,70
-104,-46,-62,-9,70
-102,-42,-60,-6,71
-95,-41,-57,-6,72
-85,-45,-53,-8,71
-78,-52,-50,-13,67
-79,-59,-46,-19,60
-86,-62,-42,-24,52
-96,-61,-38,-27,44
-104,-58,-33,-29,37
-105,-54,-30,-30,31
-99,-52,-28,-30,25
-89,-50,-27,-30,19
-80,-46,-28,-29,13
-76,-38,-29,-26,7
-79,-26,-28,-22,1
-85,-13,-25,-19,-4
-89,-3,-20,-17,-8
-86,1,-14,-16,-10
-73,1,-9,-16,-10
-55,-1,-6,-15,-11
-38,-2,-3,-12,-11
-27,0,-2,-9,-13
-25,5,-1,-6,-14
-28,11,-1,-6,-16
-32,15,0,-7,-18
-35,17,0,-10,-19
-36,17,2,-12,-18
-35,14,5,-15,-19
-34,10,7,-19,-21
-31,5,9,-24,-28
-25,0,7,-30,-38
-19,-4,4,-37,-51
-17,-5,0,-44,-63
-22,-2,-3,-47,-73
-35,5,-3,-48,-79
-50,16,-1,-45,-82
-59,27,0,-40,-83
-55,39,-1,-33,-85
-39,49,-3,-27,-88
-17,57,-5,-20,-91
1,63,-6,-16,-94
11,68,-5,-16,-96
15,71,-4,-18,-97
18,73,-4,-23,-97
25,74,-5,-27,-98
37,76,-8,-29,-99
50,80,-10,-27,-99
60,86,-12,-25,-99
66,92,-11,-22,-100
68,98,-10,-20,-100
71,104,-8,-18,-102
78,112,-7,-15,-104
87,123,-5,-10,-105
93,136,-3,-4,-105
92,149,-1,1,-103
84,160,-2,4,-101
74,165,-4,5,-99
67,167,-9,6,-98
68,169,-13,9,-99
75,173,-15,15,-101
86,180,-14,21,-104
94,188,-12,25,-106
97,193,-10,26,-106
96,194,-10,23,-106
94,191,-13,18,-105
94,187,-17,14,-105
96,183,-23,12,-106
100,181,-28,11,-110
103,177,-31,10,-114
105,171,-34,6,-118
106,163,-36,0,-119
106,156,-38,-6,-119
104,155,-40,-10,-117
98,162,-41,-11,-116
89,176,-41,-8,-119
79,192,-40,-2,-126
71,203,-40,4,-135
69,207,-42,9,-143
72,205,-47,10,-149
76,199,-54,8,-150
78,194,-63,3,-148
76,193,-70,-2,-146
71,193,-76,-7,-145
63,192,-78,-10,-148
55,188,-77,-13,-154
45,181,-75,-16,-161
33,173,-73,-20,-167
19,166,-72,-24,-170
9,163,-74,-27,-170
6,163,-78,-28,-168
12,165,-83,-27,-165
23,167,-88,-24,-163
32,170,-91,-21,-163
33,175,-90,-19,-166
26,180,-86,-17,-169
17,185,-81,-16,-173
13,188,-78,-16,-176
17,189,-78,-15,-178
28,188,-81,-13,-180
38,189,-87,-12,-182
42,191,-92,-12,-184
38,195,-95,-12,-187
31,198,-96,-14,-188
27,199,-94,-16,-187
28,196,-92,-18,-182
34,191,-90,-19,-176
40,186,-89,-19,-171
45,183,-91,-19,-170
45,182,-95,-20,-173
44,181,-100,-23,-180
44,178,-104,-28,-188
46,175,-105,-32,-194
52,173,-104,-35,-195
59,173,-100,-35,-193
66,177,-97,-31,-190
71,183,-98,-27,-190
73,189,-103,-23,-194
73,194,-114,-20,-202
71,198,-125,-19,-210
69,203,-134,-17,-214
69,209,-135,-14,-212
71,215,-129,-8,-203
75,220,-117,1,-187
79,223,-102,11,-168
82,225,-88,20,-149
81,225,-76,27,-134
74,223,-69,31,-126
66,219,-66,29,-127
59,211,-70,21,-136
58,202,-79,8,-150
61,193,-91,-7,-166
65,187,-102,-22,-179
65,188,-110,-33,-187
60,194,-113,-38,-190
50,203,-114,-40,-191
40,210,-113,-37,-190
37,214,-114,-33,-191
42,215,-116,-27,-193
54,216,-119,-19,-194
66,218,-119,-12,-195
72,221,-118,-5,-196
69,223,-116,-2,-197
57,223,-114,-4,-197
43,221,-113,-8,-198
34,215,-113,-14,-197
32,209,-114,-19,-195
37,201,-113,-21,-192
44,190,-113,-23,-190
48,178,-111,-26,-190
44,165,-110,-30,-191
34,156,-109,-35,-191
24,154,-108,-39,-191
20,159,-108,-39,-188
24,171,-108,-36,-186
31,183,-110,-33,-186
35,190,-115,-32,-192
27,190,-123,-35,-203
6,186,-131,-42,-218
-26,182,-139,-48,-233
-59,181,-145,-51,-243
-83,184,-146,-49,-244
-92,190,-143,-43,-236
-84,194,-133,-35,-222
-61,195,-120,-28,-207
-24,191,-105,-24,-196
24,184,-90,-22,-190
86,178,-77,-19,-188
160,174,-64,-14,-186
244,173,-50,-7,-178
331,173,-35,3,-161
416,174,-18,12,-138
489,174,-2,21,-113
547,176,11,30,-90
586,180,20,38,-71
608,187,27,50,-54
619,196,35,64,-38
622,207,47,79,-20
621,217,60,93,-2
614,224,72,102,14
599,227,80,106,24
573,229,84,107,29
538,230,83,107,31
499,231,82,107,33
466,230,82,108,34
441,226,82,107,34
423,219,78,100,28
401,208,67,86,14
362,196,47,65,-10
297,184,19,38,-41
205,172,-14,10,-78
89,163,-48,-16,-114
-43,155,-79,-39,-147
-181,149,-106,-56,-175
-315,144,-125,-67,-195
-434,141,-137,-72,-209
-525,142,-141,-70,-217
-578,146,-138,-63,-219
-586,156,-129,-54,-218
-553,169,-119,-44,-214
-492,180,-109,-35,-208
-422,187,-101,-29,-202
-362,184,-98,-26,-196
-325,173,-98,-25,-191
-313,158,-99,-27,-190
-320,144,-99,-30,-191
-333,135,-98,-34,-194
-343,131,-95,-38,-197
-343,128,-93,-43,-198
-333,124,-91,-46,-197
-320,115,-90,-48,-195
-312,106,-88,-48,-192
-314,99,-84,-46,-189
-328,99,-78,-42,-186
-349,107,-71,-37,-182
-369,119,-66,-35,-177
-381,131,-64,-34,-172
-381,141,-67,-35,-168
-372,148,-71,-36,-166
-362,154,-76,-33,-167
-357,159,-78,-27,-170
-362,164,-76,-19,-171
-374,166,-72,-10,-169
-388,165,-66,-4,-162
-398,160,-59,-1,-154
-399,153,-53,-1,-146
-394,145,-49,-3,-141
-388,136,-45,-6,-139
-385,128,-43,-8,-140
-388,120,-43,-10,-140
-395,112,-43,-12,-138
-406,107,-41,-12,-135
-416,105,-39,-10,-131
-426,107,-36,-6,-127
-434,113,-33,-2,-124
-441,121,-31,2,-122
-445,130,-30,5,-119
-445,139,-31,7,-117
-443,148,-31,9,-115
-441,156,-30,12,-113
-442,162,-28,16,-109
-449,164,-26,20,-103
-459,164,-23,24,-98
-468,161,-19,28,-93
-473,159,-15,32,-90
-476,158,-10,36,-90
-481,158,-5,39,-92
-488,156,0,39,-95
-499,149,2,34,-98
-508,134,1,23,-99
-510,116,-3,10,-99
-504,100,-7,-1,-96
-495,91,-10,-6,-91
-489,93,-9,-5,-84
-494,103,-5,2,-76
-510,114,0,10,-70
-529,122,4,14,-66
-543,124,5,15,-66
-544,124,4,15,-68
-534,126,1,15,-70
-518,134,-1,20,-69
-508,145,-1,28,-65
-509,155,3,36,-59
-523,158,7,42,-53
-543,153,13,41,-48
-561,141,18,36,-45
-570,126,22,28,-42
-569,111,26,22,-39
-561,100,29,18,-36
-553,90,32,18,-33
-552,80,33,19,-33
-558,72,32,19,-34
-569,66,29,17,-38
-576,66,25,15,-42
-577,73,20,13,-44
-570,84,17,13,-44
-561,96,16,15,-43
-556,105,16,19,-40
-558,112,16,24,-36
-565,116,17,27,-32
-572,119,17,28,-29
-576,123,19,28,-26
-575,125,21,25,-24
-572,123,23,22,-22
-569,116,25,18,-23
-569,105,26,15,-25
-572,92,26,12,-30
-577,81,26,9,-37
-585,70,24,5,-43
-593,60,22,0,-46
-600,50,20,-5,-46
-604,40,18,-8,-42
-603,32,18,-6,-33
-596,31,22,3,-21
-586,38,32,18,-6
-577,52,48,37,9
-573,68,67,55,24
-573,82,85,66,34
-577,91,95,69,38
-579,95,95,62,34
-578,94,83,48,23
-573,91,65,30,9
-567,86,47,14,-6
-564,80,33,1,-18
-564,73,27,-7,-25
-568,66,28,-12,-29
-572,60,32,-14,-31
-572,53,35,-15,-33
-568,44,35,-16,-35
-560,33,33,-16,-36
-552,20,32,-16,-35
-548,9,33,-15,-31
-551,4,35,-13,-26
-558,5,38,-11,-22
-566,14,39,-9,-19
-567,28,38,-7,-19
-560,45,35,-4,-21
-549,63,33,0,-23
-539,83,34,7,-24
-537,105,38,16,-21
-543,128,43,27,-17
-552,147,47,38,-12
-560,159,48,46,-9
-561,163,45,50,-8
-557,160,42,52,-8
-552,155,39,52,-9
-550,154,38,53,-10
-551,157,39,55,-9
-551,163,41,58,-7
-548,169,43,61,-3
-541,170,46,66,1
-534,169,49,70,5
-531,168,52,74,9
-532,171,56,78,12
-539,180,58,82,12
-546,194,59,86,11
-552,209,57,89,7
-556,224,53,93,3
-560,237,50,98,0
-565,249,47,104,-1
-569,259,47,110,0
-569,268,49,115,3
-564,272,53,116,6
-554,271,56,114,7
-543,265,58,111,8
-535,256,60,107,7
-532,246,61,106,5
-535,237,61,106,5
-541,229,62,106,6
-546,220,63,104,9
-546,209,64,98,13
-540,198,65,90,16
-528,189,67,83,19
-516,185,67,79,19
-509,189,68,81,19
-511,198,67,87,19
-521,209,65,93,19
-534,219,62,98,18
-546,228,59,99,16
-550,235,57,99,12
-547,242,58,100,7
-542,246,60,102,2
-540,245,63,105,-2
-543,237,66,106,-4
-549,221,67,102,-3
-554,202,66,95,-1
-552,181,62,84,2
-546,163,59,75,3
-538,146,57,68,4
-536,132,57,65,4
-539,118,57,63,4
-545,107,57,61,5
-548,100,56,58,5
-546,99,55,55,4
-540,103,54,53,1
-532,110,54,53,-2
-528,116,55,54,-4
-528,120,56,55,-4
-531,124,55,57,-4
-536,129,54,59,-4
-539,135,52,60,-5
-541,140,51,60,-9
-543,140,51,58,-15
-545,131,51,53,-21
-544,116,51,46,-24
-541,96,49,38,-25
-536,78,48,30,-23
-532,63,47,25,-20
-532,50,47,21,-16
-537,37,48,18,-14
-543,22,49,12,-10
-547,8,50,5,-6
-547,-1,51,-3,0
-542,-2,50,-6,8
-537,4,49,-4,14
-535,15,47,2,17
-540,24,44,10,18
-549,29,41,17,17
-556,31,41,20,16
-558,33,44,20,16
-550,37,52,21,19
-537,44,61,22,22
-525,49,69,26,24
-520,48,73,29,26
-524,38,73,31,26
-535,21,69,30,25
-545,3,67,26,24
-548,-14,67,19,24
-542,-28,71,11,24
-531,-40,76,3,24
-521,-53,81,-5,24
-517,-67,83,-12,23
-519,-79,83,-18,21
-526,-84,81,-23,17
-534,-82,78,-27,11
-539,-73,74,-30,4
-543,-61,70,-32,-3
-547,-50,66,-32,-8
-552,-41,61,-30,-9
-556,-33,59,-26,-8
-558,-25,59,-21,-7
-556,-17,62,-17,-5
-552,-13,64,-16,-4
-551,-17,65,-18,-5
-554,-29,63,-22,-6
-562,-47,60,-26,-7
-572,-67,56,-29,-7
-579,-84,55,-31,-8
-580,-97,57,-33,-8
-574,-106,62,-36,-8
-566,-115,67,-41,-5
-559,-124,72,-47,-1
-555,-132,74,-53,4
-555,-137,74,-57,8
-558,-137,71,-58,9
-561,-131,67,-56,7
-565,-123,62,-53,3
-570,-115,57,-49,-3
-576,-106,52,-46,-9
-583,-96,46,-44,-13
-587,-86,41,-42,-16
-587,-77,36,-43,-16
-582,-72,33,-44,-15
-573,-75,31,-48,-13
-566,-87,31,-53,-12
-564,-106,30,-60,-13
-565,-126,29,-66,-17
-568,-146,25,-73,-23
-567,-164,19,-79,-30
-561,-180,11,-86,-36
-552,-195,3,-93,-38
-545,-208,-2,-100,-37
-545,-216,-5,-104,-31
-552,-214,-2,-103,-22
-563,-205,5,-97,-13
-570,-192,15,-87,-3
-569,-180,28,-74,7
-560,-171,43,-61,17
-546,-164,56,-51,28
-535,-155,66,-43,37
-530,-143,70,-38,41
-533,-130,68,-38,40
-542,-121,60,-42,31
-553,-123,47,-51,19
-563,-138,32,-65,6
-571,-160,19,-79,-4
-575,-185,10,-91,-7
-574,-205,7,-99,-5
-569,-219,8,-103,0
-560,-228,13,-105,5
-548,-235,19,-106,9
-536,-242,24,-109,10
-524,-247,27,-112,11
-515,-246,29,-114,11
-509,-239,30,-114,13
-504,-229,29,-111,15
-499,-218,28,-106,15
-495,-210,27,-100,14
-492,-202,26,-95,12
-492,-194,26,-90,11
-492,-183,29,-83,10
-492,-171,35,-76,12
-491,-163,45,-68,14
-489,-160,57,-63,17
-489,-165,69,-61,20
-492,-174,77,-65,22
-497,-185,80,-71,24
-498,-195,79,-79,26
-493,-204,75,-85,28
-479,-216,71,-88,28
-460,-229,68,-91,27
-443,-241,68,-94,23
-432,-248,69,-97,19
-431,-247,69,-100,14
-435,-240,67,-101,10
-438,-229,63,-99,7
-436,-221,57,-96,5
-429,-217,51,-93,4
-419,-216,46,-91,4
-410,-213,43,-90,6
-402,-206,43,-89,11
-395,-195,46,-85,17
-385,-185,52,-79,23
-371,-179,59,-72,28
-357,-180,66,-66,29
-345,-187,71,-63,27
-334,-194,73,-63,26
-325,-200,74,-66,27
-315,-203,76,-68,31
-303,-206,79,-70,38
-290,-211,85,-72,44
-280,-217,92,-75,43
-271,-224,100,-79,36
-261,-226,107,-83,22
-246,-222,115,-85,5
-224,-210,125,-82,-8
-197,-192,140,-73,-17
-171,-170,160,-59,-19
-150,-146,185,-43,-19
-139,-123,214,-26,-19
-134,-102,243,-13,-23
-131,-86,269,-3,-28
-122,-77,291,4,-32
-105,-74,310,11,-29
-82,-78,327,17,-18
-55,-85,344,24,3
-29,-95,362,32,31
-6,-105,382,41,61
9,-118,402,50,93
15,-133,421,59,126
10,-148,438,68,163
-2,-161,450,77,205
-15,-168,457,89,252
-21,-171,458,103,304
-15,-172,451,118,359
1,-177,439,135,415
20,-189,423,152,470
32,-207,404,167,525
30,-227,385,181,580
16,-245,365,195,635
-2,-259,341,208,691
-15,-272,309,221,752
-16,-289,271,233,816
-7,-314,227,241,884
3,-348,183,245,949
8,-385,143,244,1007
1,-422,109,239,1050
-13,-453,81,229,1078
-30,-477,59,214,1089
-43,-497,40,196,1086
-48,-514,23,174,1071
-45,-529,6,148,1045
-35,-540,-13,121,1007
-22,-545,-36,92,956
-7,-543,-66,62,893
7,-537,-104,32,822
18,-531,-149,2,750
24,-526,-197,-28,682
26,-524,-244,-55,623
26,-522,-287,-81,570
28,-518,-326,-105,520
34,-512,-360,-130,466
43,-504,-391,-157,405
54,-498,-417,-187,337
65,-496,-435,-216,265
75,-497,-444,-241,195
84,-498,-442,-258,134
94,-498,-431,-267,84
104,-494,-414,-268,45
113,-487,-395,-268,14
119,-480,-375,-269,-13
122,-473,-353,-272,-36
123,-466,-328,-274,-55
126,-457,-300,-273,-68
133,-444,-268,-266,-76
142,-426,-235,-254,-79
150,-403,-202,-238,-80
154,-377,-169,-222,-80
154,-354,-138,-208,-81
151,-333,-106,-195,-81
146,-318,-76,-183,-79
142,-308,-48,-171,-74
136,-303,-25,-160,-65
129,-302,-8,-152,-54
121,-303,4,-147,-43
112,-306,12,-146,-35
106,-310,19,-148,-30
104,-314,25,-151,-29
105,-320,30,-154,-32
107,-328,34,-157,-37
107,-338,36,-161,-44
106,-345,35,-164,-49
103,-347,34,-165,-51
101,-342,34,-164,-51
98,-330,37,-159,-48
92,-315,44,-151,-42
79,-300,54,-140,-34
62,-288,66,-128,-23
47,-279,79,-117,-13
39,-270,90,-109,-5
42,-261,98,-106,-2
53,-253,98,-108,-7
64,-250,92,-118,-19
69,-255,79,-133,-36
62,-266,63,-152,-54
46,-282,48,-171,-69
25,-297,37,-186,-81
8,-307,32,-196,-89
-3,-309,31,-198,-93
-6,-308,34,-195,-95
-6,-305,39,-188,-92
-6,-305,45,-180,-86
-7,-308,52,-171,-77
-10,-309,61,-164,-68
-17,-307,69,-157,-60
-23,-298,76,-151,-56
-28,-284,83,-146,-56
-28,-267,88,-140,-57
-24,-252,92,-134,-58
-20,-241,94,-128,-58
-22,-234,96,-121,-58
-34,-231,98,-115,-57
-57,-228,101,-109,-56
-84,-226,105,-104,-55
-107,-222,110,-100,-52
-118,-218,116,-95,-47
-118,-216,121,-91,-40
-114,-217,121,-89,-34
-114,-222,116,-91,-32
-126,-229,106,-96,-34
-149,-238,92,-103,-42
-177,-243,78,-111,-52
-203,-243,67,-116,-63
-221,-237,59,-116,-72
-231,-225,58,-112,-77
-238,-210,62,-103,-77
-242,-195,73,-92,-71
-241,-180,89,-79,-62
-229,-166,108,-67,-51
-198,-153,125,-57,-42
-143,-139,139,-48,-35
-66,-128,150,-39,-26
26,-121,162,-30,-13
123,-122,176,-17,6
214,-127,194,-2,31
293,-133,213,14,56
356,-136,230,28,78
405,-135,242,39,92
442,-129,248,46,102
471,-122,252,51,114
491,-117,257,58,132
502,-114,266,69,157
500,-112,277,81,184
486,-107,288,93,206
461,-96,296,101,218
431,-82,300,103,221
404,-68,300,101,219
384,-57,299,95,215
371,-50,296,88,211
360,-47,290,82,205
340,-44,278,74,193
301,-40,259,65,171
238,-36,234,52,139
148,-33,202,36,102
36,-33,169,17,63
-92,-39,135,-4,27
-225,-48,106,-23,-4
-355,-57,82,-39,-29
-469,-65,67,-47,-48
-555,-69,60,-47,-60
-602,-69,62,-39,-62
-607,-64,70,-26,-57
-576,-57,82,-13,-45
-523,-49,94,-2,-32
-464,-40,103,3,-22
-413,-33,108,4,-18
-374,-26,109,3,-19
-346,-20,106,2,-23
-324,-12,101,2,-25
-306,-3,97,3,-26
-295,8,95,3,-24
-293,16,93,3,-21
-302,20,92,2,-19
-318,17,90,3,-19
-333,9,88,4,-17
-339,-1,86,5,-15
-336,-10,85,6,-10
-330,-16,85,6,-5
-328,-20,87,4,-1
-335,-23,89,3,0
-348,-25,90,2,-2
-361,-26,90,4,-5
-365,-25,89,7,-8
-360,-20,87,10,-9
-349,-12,85,11,-10
-339,-2,81,10,-12
-335,6,77,8,-16
-337,11,73,7,-22
-342,14,69,8,-28
-345,17,67,10,-32
-346,22,65,13,-34
-345,27,65,15,-33
-345,31,64,16,-30
-349,33,64,17,-27
-354,32,64,18,-25
-358,31,65,19,-24
-359,30,66,20,-24
-356,30,69,20,-25
-354,29,70,17,-24
-356,24,70,11,-23
-364,17,67,5,-19
-375,11,62,3,-16
-386,10,56,6,-14
-390,17,51,16,-13
-385,32,51,30,-15
-374,50,53,44,-17
-362,66,59,54,-17
-354,77,65,58,-16
-351,83,68,58,-13
-354,86,69,56,-10
-360,87,66,54,-10
-364,88,62,52,-12
-367,86,58,50,-16
-366,81,55,47,-19
-363,73,53,42,-20
-358,64,53,37,-18
-355,57,54,33,-15
-356,52,54,32,-11
-362,49,54,35,-7
-372,46,54,39,-4
-381,43,52,42,-1
-386,40,49,43,2
-383,40,46,42,4
-373,45,43,40,5
-361,54,43,39,4
-351,63,43,39,2
-346,69,43,40,1
-344,70,43,41,0
-341,68,41,42,0
-337,66,40,42,1
-332,67,39,43,2
-331,72,39,44,3
-336,78,40,47,5
-346,80,40,51,9
-355,77,40,54,13
-359,68,38,55,16
-354,56,34,54,16
-343,43,29,50,13
-332,33,23,45,8
-326,27,17,40,4
-327,23,10,35,2
-333,20,5,32,4
-340,20,3,32,10
-345,22,5,36,20
-346,27,14,45,32
-344,35,27,59,46
-342,43,41,73,60
-340,49,52,84,72
-338,50,55,87,79
-336,48,50,82,79
-334,45,37,68,73
-332,41,19,50,62
-331,38,3,34,51
-330,34,-9,21,43
-330,29,-16,12,39
-330,20,-18,6,38
-328,9,-17,3,40
-326,-4,-16,2,43
-324,-17,-15,1,46
-325,-29,-14,2,49
-329,-38,-16,4,54
-337,-44,-18,7,60
-345,-46,-21,10,66
-350,-45,-25,15,72
-348,-43,-29,19,77
-339,-41,-32,22,79
-325,-40,-35,21,80
-312,-41,-38,19,81
-308,-43,-40,15,81
-313,-43,-41,13,82
-327,-41,-40,15,84
-344,-40,-36,20,87
-356,-42,-30,26,93
-361,-49,-24,28,100
-357,-60,-19,24,108
-348,-72,-18,16,116
-338,-82,-20,8,121
-330,-90,-24,2,124
-325,-96,-29,0,125
-324,-104,-32,1,123
-326,-113,-34,2,123
-331,-121,-35,2,124
-336,-124,-36,3,128
-341,-121,-38,6,135
-345,-111,-42,11,142
-348,-99,-46,17,148
-352,-90,-50,20,152
-357,-86,-54,21,154
-363,-85,-58,19,155
-364,-85,-62,17,157
-358,-83,-65,18,160
-346,-79,-68,21,164
-333,-76,-71,25,167
-328,-77,-73,27,167
-333,-81,-73,28,164
-346,-87,-73,27,160
-360,-91,-73,27,157
-365,-94,-73,26,154
-358,-97,-72,25,153
-340,-101,-72,21,152
-321,-107,-71,14,151
-308,-114,-71,6,151
-305,-119,-72,0,152
-309,-120,-73,-2,153
-315,-118,-75,-1,156
-319,-116,-77,2,158
-321,-115,-79,3,160
-324,-117,-80,3,161
-329,-117,-79,3,165
-333,-114,-76,3,171
-331,-107,-72,6,180
-320,-100,-67,11,189
-302,-99,-61,16,195
-283,-107,-58,17,195
-272,-123,-57,13,189
-275,-141,-58,5,179
-290,-154,-61,-4,169
-309,-159,-63,-11,161
-319,-157,-62,-14,157
-316,-152,-57,-14,156
-298,-149,-51,-11,156
-276,-150,-44,-9,155
-259,-154,-40,-7,153
-253,-157,-39,-6,150
-256,-157,-41,-6,147
-262,-157,-43,-5,145
-266,-156,-46,-6,141
-266,-156,-46,-7,137
-264,-158,-45,-9,133
-264,-159,-44,-13,129
-266,-158,-44,-17,126
-266,-156,-44,-20,126
-262,-155,-45,-22,128
-252,-157,-44,-21,132
-241,-160,-40,-17,137
-236,-163,-32,-12,144
-239,-163,-22,-7,150
-247,-162,-12,-3,153
-251,-161,-6,-2,153
-248,-163,-3,-6,150
-235,-167,-3,-12,143
-221,-171,-3,-18,136
-211,-170,-1,-20,130
-209,-164,4,-19,126
-211,-153,10,-16,121
-211,-143,15,-14,115
-205,-139,17,-16,105
-195,-143,15,-22,93
-187,-150,12,-30,83
-185,-156,12,-37,76
-189,-154,17,-39,75
-192,-145,25,-35,77
-189,-131,36,-26,80
-181,-121,46,-17,83
-173,-117,52,-10,82
-172,-122,54,-9,77
-181,-132,53,-14,70
-194,-143,52,-23,61
-203,-152,50,-32,52
-201,-156,50,-38,45
-188,-154,50,-39,42
-172,-149,53,-35,41
-162,-141,58,-27,43
-164,-133,65,-20,43
-176,-128,73,-15,41
-190,-127,80,-15,35
-201,-130,84,-20,27
-203,-136,84,-28,19
-198,-141,81,-36,13
-189,-143,75,-44,9
-181,-143,70,-49,6
-174,-143,68,-53,2
-172,-144,71,-56,-4
-174,-147,77,-58,-11
-182,-153,84,-62,-15
-193,-158,91,-67,-16
-204,-164,93,-72,-13
-212,-170,91,-79,-9
-212,-177,85,-85,-7
-208,-184,79,-90,-9
-202,-189,74,-91,-14
-199,-187,75,-89,-21
-199,-179,80,-84,-28
-200,-165,87,-79,-33
-199,-152,92,-77,-36
-193,-145,94,-77,-39
-186,-145,91,-79,-43
-181,-150,85,-81,-47
-184,-156,79,-80,-53
-194,-160,75,-78,-57
-205,-160,74,-76,-60
-212,-160,76,-77,-61
-209,-163,78,-81,-60
-197,-169,79,-87,-60
-181,-176,78,-93,-60
-167,-181,76,-94,-63
-159,-179,72,-92,-67
-159,-170,67,-88,-72
-163,-158,61,-85,-77
-170,-146,53,-84,-81
-175,-138,45,-84,-85
-179,-134,40,-85,-88
-182,-131,38,-83,-89
-185,-126,41,-78,-87
-186,-119,46,-70,-83
-185,-109,55,-60,-77
-179,-97,63,-50,-67
-170,-86,72,-38,-57
-160,-75,81,-28,-46
-154,-67,89,-19,-37
-153,-60,95,-14,-32
-158,-57,95,-16,-32
-165,-58,90,-24,-38
-170,-64,78,-39,-51
-170,-72,63,-57,-67
-165,-82,47,-73,-86
-157,-89,34,-86,-102
-148,-92,24,-92,-114
-141,-89,18,-92,-120
-137,-81,15,-86,-120
-135,-68,13,-78,-117
-134,-55,14,-67,-111
-135,-41,14,-57,-106
-136,-30,15,-47,-101
-137,-22,16,-38,-99
-135,-18,17,-32,-99
-130,-16,17,-29,-99
-122,-17,18,-30,-99
-113,-17,19,-33,-97
-106,-18,20,-38,-92
-101,-20,20,-43,-87
-97,-23,18,-47,-83
-92,-28,15,-50,-81
-87,-33,12,-50,-81
-82,-37,11,-48,-82
-80,-38,12,-45,-83
-84,-35,13,-42,-83
-93,-30,13,-39,-82
-104,-26,11,-36,-79
-113,-26,9,-34,-76
-118,-26,7,-31,-73
-117,-24,6,-27,-70
-113,-17,8,-23,-70
-109,-4,11,-19,-72
-108,9,13,-15,-77
-112,19,13,-12,-82
-117,21,11,-11,-86
-120,17,8,-10,-88
-117,10,5,-9,-88
-107,7,5,-9,-86
-93,8,6,-10,-84
-80,13,7,-12,-82
-75,18,8,-13,-81
-78,18,7,-14,-80
-89,14,4,-15,-80
-102,8,-2,-14,-79
-112,5,-8,-13,-80
-116,8,-12,-12,-82
-112,17,-12,-12,-86
-101,29,-10,-12,-88
-86,39,-5,-10,-89
-68,46,0,-5,-88
-50,50,3,3,-85
-36,52,4,12,-81
-29,55,4,21,-77
-30,58,5,27,-73
-38,64,9,30,-71
-48,71,15,31,-69
-57,80,23,32,-68
-61,87,31,34,-67
-61,91,36,37,-66
-59,90,40,38,-64
-58,83,41,37,-60
-57,72,42,33,-56
-54,61,41,29,-52
-47,55,40,28,-48
-34,58,37,31,-45
-16,69,35,38,-43
3,85,34,46,-42
17,101,35,54,-41
25,111,38,60,-40
26,117,43,64,-38
25,119,48,67,-35
29,121,53,70,-34
42,125,57,72,-33
62,129,61,72,-33
85,132,63,70,-35
101,132,64,67,-38
107,129,62,62,-41
103,123,58,59,-43
95,118,52,57,-44
92,115,46,56,-42
97,112,42,54,-40
108,110,40,50,-38
119,107,39,45,-39
127,104,38,41,-42
131,102,36,40,-44
134,103,35,44,-46
143,106,35,51,-44
160,109,37,59,-40
181,113,39,66,-35
200,116,40,69,-34
214,120,39,68,-37
222,127,36,65,-43
228,135,32,62,-49
234,142,30,61,-53
244,147,30,61,-52
255,148,31,62,-48
262,144,33,60,-44
263,138,32,56,-43
258,130,31,50,-46
249,122,30,44,-52
241,114,31,40,-60
237,107,32,38,-65
238,101,33,39,-68
242,98,32,41,-69
247,99,27,42,-67
252,103,20,43,-66
256,109,13,43,-65
260,114,8,43,-63
264,118,6,44,-62
266,122,7,45,-60
265,126,8,47,-60
259,130,8,48,-62
250,133,6,47,-65
239,134,2,45,-69
229,132,-1,41,-73
223,127,-2,38,-75
219,121,-1,36,-75
216,116,2,38,-75
214,112,5,41,-74
217,107,7,43,-76
228,102,7,42,-79
250,95,7,39,-83
278,89,6,36,-86
306,87,6,35,-87
324,90,6,37,-87
328,97,7,43,-86
322,104,7,49,-85
313,110,6,53,-85
309,111,3,53,-86
313,111,0,50,-88
321,112,-4,47,-88
327,114,-8,44,-86
324,116,-12,42,-81
314,115,-14,40,-74
303,112,-15,37,-69
298,105,-15,34,-65
303,99,-15,32,-64
317,95,-16,31,-67
333,94,-16,31,-71
342,93,-16,30,-76
341,88,-16,25,-79
331,81,-15,17,-79
316,72,-14,9,-78
303,64,-15,2,-78
297,62,-17,1,-81
297,64,-23,4,-86
302,70,-30,10,-93
307,75,-37,17,-100
307,80,-44,23,-104
303,84,-49,27,-104
295,89,-50,32,-100
288,97,-47,39,-91
284,106,-40,49,-80
284,113,-28,61,-67
287,116,-13,71,-55
290,115,0,77,-44
289,111,7,76,-39
285,105,7,67,-39
279,97,-3,52,-46
274,87,-20,34,-57
273,74,-38,17,-67
277,61,-53,2,-75
282,52,-61,-7,-78
284,51,-62,-11,-78
282,59,-58,-10,-76
277,73,-51,-6,-74
273,87,-43,2,-72
275,97,-34,13,-69
284,101,-26,24,-65
295,100,-18,34,-60
303,97,-12,41,-57
302,97,-9,44,-55
291,99,-9,43,-54
272,102,-10,40,-53
253,105,-11,38,-50
239,107,-10,38,-44
233,108,-5,40,-38
233,108,-1,41,-35
231,107,0,41,-38
224,103,-3,37,-47
208,97,-11,30,-59
185,90,-22,21,-73
158,85,-31,14,-84
131,83,-36,10,-90
110,85,-34,12,-91
97,88,-27,19,-87
97,92,-16,29,-79
114,94,-4,41,-71
149,98,8,51,-63
205,104,19,60,-57
277,114,29,69,-50
359,126,39,79,-40
445,139,51,91,-24
529,149,67,105,-3
607,154,87,118,21
676,155,107,129,45
733,155,127,136,64
775,157,143,141,80
802,158,155,146,95
813,158,165,153,113
811,156,175,163,136
799,152,184,174,160
780,149,194,184,181
755,151,203,191,196
727,157,209,196,202
702,167,212,200,203
682,177,214,202,201
671,183,214,204,198
665,185,213,203,194
656,186,211,199,185
632,186,204,190,168
583,187,188,176,143
506,188,162,158,111
404,186,127,137,76
282,181,88,113,41
148,172,50,89,11
11,163,18,69,-13
-117,157,-5,56,-29
-225,153,-16,51,-36
-297,151,-18,56,-35
-326,149,-12,65,-28
-313,144,0,76,-16
-268,138,14,84,-2
-209,134,28,88,10
-154,135,40,89,17
-112,140,46,90,20
-85,148,46,92,18
-66,157,41,95,14
-51,164,34,99,11
-37,168,27,102,11
-25,169,24,104,14
-20,169,25,103,20
-23,167,29,102,26
-32,165,33,101,32
-41,163,37,100,37
-46,160,39,99,39
-45,157,40,97,40
-40,155,41,95,39
-36,154,43,91,36
-36,153,45,88,30
-42,150,48,84,23
-51,146,50,83,17
-58,142,51,84,14
-62,140,51,86,15
-61,141,49,91,20
-58,145,47,95,25
-54,150,44,98,28
-51,154,42,99,26
-46,157,39,97,19
-40,159,36,94,9
-32,161,33,93,-1
-24,163,29,93,-8
-17,166,26,96,-11
-14,168,26,97,-11
-16,166,27,97,-11
-20,162,31,95,-11
-25,157,34,91,-12
-32,152,37,89,-13
-41,148,37,89,-12
-55,144,36,92,-9
-72,140,35,96,-6
-89,134,35,97,-4
-100,129,36,95,-3
-102,126,37,91,-5
-94,128,37,86,-7
-82,133,35,84,-8
-73,140,33,85,-8
-72,146,29,87,-7
-81,150,27,90,-6
-95,152,26,92,-5
-108,153,28,92,-6
-116,155,29,91,-7
-119,157,31,90,-8
-119,157,32,90,-8
-121,154,31,89,-7
-126,148,30,86,-7
-132,140,29,82,-7
-136,134,29,77,-7
-137,131,31,74,-7
-136,130,34,73,-7
-134,128,37,75,-7
-136,125,40,77,-6
-141,119,41,78,-5
-147,115,41,77,-3
-153,114,40,73,-1
-156,117,38,69,0
-157,124,35,65,2
-158,131,31,62,4
-162,136,28,63,7
-169,139,26,65,10
-176,139,24,68,13
-184,139,24,70,15
-188,138,25,71,15
-188,137,25,71,14
-186,133,25,70,12
-182,128,24,68,11
-179,121,24,65,11
-177,116,23,63,11
-176,111,22,60,11
-176,106,20,58,10
-174,99,17,56,9
-170,91,12,55,7
-164,81,6,54,3
-161,74,0,51,-2
-164,73,-5,49,-8
-176,79,-5,49,-12
-193,91,2,54,-10
-211,107,14,65,-1
-224,121,31,81,15
-226,131,48,98,33
-220,137,60,112,48
-211,139,65,117,55
-205,138,62,111,52
-204,134,52,95,41
-208,128,41,74,28
-214,121,31,54,16
-219,113,25,39,9
-223,107,22,30,6
-226,103,22,27,5
-229,100,23,29,4
-230,98,24,32,2
-228,95,27,38,-1
-221,91,31,43,-3
-208,88,35,48,-3
-194,89,39,52,-3
-183,93,42,55,-3
-179,101,45,58,-3
-183,110,46,62,-2
-190,118,47,68,-1
-196,123,47,75,2
-195,127,47,82,7
-186,129,47,87,10
-170,131,47,88,12
-151,130,49,88,11
-135,128,51,86,8
-127,125,53,85,5
-130,121,53,86,4
-141,119,51,89,6
-157,117,47,92,10
-173,116,45,95,15
-184,113,45,95,20
-187,108,46,93,25
-182,102,50,89,30
-171,99,53,86,34
-158,99,54,84,35
-148,102,55,83,35
-142,108,55,85,33
-141,113,54,86,31
-145,116,54,87,30
-148,119,53,87,33
-147,122,51,88,36
-140,125,47,90,40
-129,129,44,93,42
-117,129,41,95,42
-109,125,40,94,39
-104,118,39,90,36
-102,111,38,83,34
-101,104,35,75,31
-98,100,29,68,29
-95,96,21,63,26
-93,90,14,59,23
-94,83,9,58,22
-97,76,6,58,22
-100,73,7,60,24
-100,76,7,63,27
-96,84,8,65,29
-90,92,7,66,31
-85,98,6,66,33
-81,99,5,66,35
-77,96,3,66,37
-72,94,1,68,39
-63,94,-2,72,40
-53,97,-6,74,39
-45,98,-11,74,37
-43,95,-16,71,35
-49,88,-19,67,34
-61,80,-20,63,36
-75,74,-19,62,39
-84,72,-17,63,42
-84,73,-13,67,44
-75,73,-9,71,44
-64,71,-5,72,42
-57,65,-2,72,38
-59,59,-1,70,36
-69,56,-1,66,34
-83,59,-2,63,35
-91,66,-3,60,37
-90,74,-3,60,40
-82,82,-1,61,40
-72,88,0,64,38
-68,93,0,67,35
-73,99,-1,69,30
-83,106,-1,69,25
-90,112,-1,69,23
-89,114,3,69,23
-78,112,9,73,25
-65,108,18,80,29
-58,102,27,88,35
-61,98,36,94,40
-75,95,43,95,45
-93,93,46,92,48
-107,90,47,85,48
-114,88,44,78,45
-113,87,41,75,40
-111,89,38,75,33
-113,96,37,79,28
-118,104,39,84,24
-123,111,41,88,22
-123,115,41,90,21
-114,115,39,90,21
-99,114,35,90,21
-86,113,30,91,21
-83,113,26,92,22
-92,116,25,93,24
-110,118,27,94,27
-129,121,30,97,31
-140,123,33,100,34
-139,124,33,104,33
-131,122,29,106,29
-122,116,24,106,21
-116,106,19,102,12
-114,94,18,96,6
-113,83,22,90,5
-107,79,29,87,9
-96,82,39,87,15
-82,93,49,90,19
-73,107,56,93,18
-74,121,62,95,11
-85,133,69,97,2
-102,143,81,101,-8
-117,153,101,107,-16
-125,166,126,118,-20
-125,181,156,130,-23
-120,197,186,143,-24
-116,209,213,152,-24
-117,216,236,159,-23
-124,217,254,163,-18
-133,215,269,168,-7
-141,211,283,177,11
-144,205,298,192,37
-144,200,314,210,68
-144,197,332,230,103
-148,195,353,248,140
-158,197,373,264,178
-172,199,391,279,220
-187,198,403,292,267
-200,192,405,307,320
-212,179,397,323,379
-224,161,382,340,442
-239,142,361,355,504
-256,124,339,368,565
-273,109,315,379,621
-286,92,289,387,677
-291,72,259,394,732
-288,44,222,398,791
-282,9,178,398,850
-278,-29,129,394,907
-280,-65,78,387,959
-287,-97,28,378,1000
-294,-124,-14,369,1030
-297,-146,-48,361,1048
-295,-165,-72,355,1056
-291,-179,-87,347,1054
-288,-186,-96,335,1041
-289,-186,-103,320,1018
-294,-179,-111,302,985
-298,-167,-121,282,942
-296,-153,-132,260,888
-284,-143,-147,236,823
-262,-139,-170,206,751
-234,-141,-203,169,672
-205,-148,-248,125,591
-179,-159,-304,75,512
-159,-171,-364,25,435
-146,-182,-421,-22,361
-137,-187,-466,-61,288
-129,-184,-495,-91,218
-118,-175,-508,-113,150
-101,-161,-508,-128,89
-78,-147,-499,-139,37
-51,-138,-486,-147,-6
-28,-135,-470,-152,-42
-12,-135,-454,-153,-74
-4,-132,-437,-152,-103
-2,-123,-417,-146,-128
-1,-106,-396,-139,-146
2,-86,-373,-131,-154
7,-67,-349,-123,-156
12,-55,-324,-117,-153
14,-48,-298,-111,-152
13,-43,-269,-103,-152
8,-36,-236,-93,-153
2,-26,-201,-80,-150
-4,-16,-167,-66,-141
-12,-8,-139,-53,-128
-21,-5,-119,-44,-113
-28,-4,-108,-39,-101
-31,-4,-103,-35,-94
-28,-1,-99,-31,-90
-21,5,-92,-26,-89
-13,12,-81,-20,-88
-11,16,-67,-14,-87
-15,17,-57,-9,-86
-22,16,-52,-5,-87
-26,15,-54,-2,-88
-23,17,-59,1,-88
-13,20,-62,3,-86
1,24,-61,3,-83
14,26,-56,1,-80
23,28,-48,-1,-79
29,31,-42,-3,-81
33,36,-40,-2,-86
37,43,-42,1,-91
41,50,-46,5,-95
44,54,-50,9,-98
46,55,-53,10,-101
49,53,-54,8,-104
55,48,-54,4,-110
64,43,-53,0,-115
77,37,-52,-5,-119
90,31,-53,-9,-121
100,26,-57,-13,-122
107,21,-62,-19,-124
110,17,-69,-24,-127
110,15,-75,-28,-131
109,14,-78,-30,-134
107,13,-79,-31,-134
106,11,-76,-32,-131
109,10,-73,-34,-126
114,10,-72,-37,-123
123,13,-73,-43,-123
132,19,-77,-48,-125
142,24,-81,-50,-128
150,26,-83,-49,-129
160,23,-82,-45,-128
173,18,-80,-40,-127
190,14,-76,-35,-127
207,13,-73,-31,-130
222,16,-70,-28,-135
232,19,-65,-27,-138
238,18,-60,-27,-138
242,12,-55,-27,-135
249,2,-50,-29,-129
259,-7,-48,-31,-124
271,-12,-50,-34,-121
283,-13,-53,-37,-120
293,-11,-57,-38,-122
302,-9,-59,-39,-125
311,-8,-59,-38,-127
324,-6,-57,-37,-127
339,-2,-54,-35,-124
354,6,-51,-33,-119
364,15,-49,-30,-113
368,23,-48,-27,-108
365,24,-48,-25,-104
359,19,-48,-25,-104
356,10,-49,-27,-105
360,1,-50,-31,-108
372,-4,-53,-34,-109
389,-6,-57,-37,-110
407,-8,-60,-38,-109
421,-12,-63,-37,-108
428,-15,-63,-35,-106
429,-17,-60,-33,-102
428,-15,-56,-31,-98
428,-9,-53,-31,-93
432,-3,-52,-32,-89
439,0,-54,-33,-87
443,0,-58,-34,-87
442,-2,-62,-33,-90
435,-3,-64,-32,-93
423,-1,-63,-31,-96
411,4,-62,-32,-98
402,8,-61,-34,-100
397,10,-62,-36,-102
391,7,-67,-38,-104
384,1,-74,-38,-107
375,-4,-81,-37,-110
366,-8,-86,-37,-114
361,-11,-90,-39,-118
358,-15,-91,-44,-122
354,-21,-92,-49,-125
345,-28,-92,-53,-126
331,-34,-92,-54,-124
316,-38,-94,-55,-121
306,-38,-96,-57,-116
304,-36,-100,-63,-113
310,-35,-104,-71,-113
316,-34,-109,-79,-116
317,-32,-113,-83,-120
311,-30,-115,-82,-124
301,-25,-116,-76,-126
293,-21,-116,-67,-126
295,-20,-116,-61,-125
307,-24,-119,-60,-127
323,-30,-123,-64,-132
335,-35,-130,-70,-141
337,-37,-136,-76,-149
330,-34,-139,-79,-155
318,-29,-139,-79,-156
309,-26,-134,-76,-151
311,-26,-127,-71,-142
323,-30,-118,-65,-129
342,-33,-107,-57,-113
361,-34,-94,-47,-94
372,-31,-80,-36,-73
375,-26,-67,-29,-57
374,-23,-60,-27,-48
374,-23,-62,-33,-52
381,-27,-73,-45,-68
395,-31,-90,-59,-91
413,-32,-108,-72,-114
428,-31,-121,-81,-129
437,-31,-126,-86,-133
439,-33,-124,-88,-129
439,-39,-119,-88,-123
439,-45,-115,-86,-119
441,-50,-111,-82,-120
442,-49,-109,-74,-124
441,-45,-107,-66,-126
437,-40,-104,-60,-125
433,-39,-101,-57,-118
435,-42,-99,-57,-109
445,-48,-99,-58,-101
461,-52,-100,-58,-96
476,-54,-101,-56,-93
484,-51,-101,-51,-91
482,-46,-98,-47,-88
474,-41,-95,-45,-84
466,-39,-91,-46,-78
462,-39,-89,-49,-72
462,-41,-89,-51,-69
462,-42,-90,-50,-68
459,-41,-92,-46,-69
455,-39,-94,-41,-71
455,-35,-95,-36,-71
464,-32,-94,-34,-69
481,-28,-91,-33,-65
499,-25,-86,-34,-59
508,-24,-79,-35,-54
502,-25,-73,-35,-51
486,-29,-70,-34,-51
470,-36,-72,-35,-55
465,-44,-76,-38,-60
476,-49,-82,-42,-63
496,-51,-85,-44,-63
513,-51,-84,-41,-59
519,-48,-80,-34,-53
511,-45,-75,-26,-48
494,-42,-74,-21,-48
477,-39,-80,-23,-54
465,-36,-92,-31,-65
457,-34,-107,-43,-79
451,-33,-121,-53,-91
441,-35,-132,-58,-98
428,-38,-137,-59,-99
415,-41,-137,-55,-96
408,-41,-133,-50,-90
412,-37,-126,-43,-80
430,-31,-116,-35,-67
464,-24,-104,-25,-51
515,-18,-89,-15,-35
582,-16,-75,-6,-19
662,-17,-61,-1,-4
749,-19,-48,3,12
838,-20,-35,8,29
924,-19,-20,16,49
1002,-15,-4,30,71
1071,-10,12,47,93
1125,-3,27,65,113
1162,5,40,80,131
1181,14,50,92,150
1187,22,60,102,172
1186,30,69,112,198
1182,37,79,122,226
1177,41,88,133,250
1169,44,96,142,266
1155,46,102,147,273
1133,45,105,149,272
1105,42,106,148,267
1074,37,103,144,259
1044,30,95,137,248
1014,23,82,127,234
976,18,63,114,214
921,14,38,96,189
841,10,8,75,158
730,3,-24,52,126
593,-8,-56,29,94
440,-20,-86,8,66
288,-31,-109,-9,44
155,-37,-124,-18,30
55,-36,-130,-18,26
-3,-29,-127,-9,33
-20,-19,-120,4,48
-1,-11,-111,18,67
42,-7,-104,30,85
96,-4,-98,37,98
150,-3,-94,40,105
194,-1,-91,42,107
225,-1,-88,42,108
240,-3,-87,43,108
241,-7,-87,42,111
235,-13,-88,40,116
227,-18,-89,39,120
221,-22,-90,38,124
217,-24,-89,39,126
213,-24,-90,41,128
205,-26,-91,42,130
192,-29,-94,41,133
179,-32,-96,38,136
169,-34,-97,35,138
164,-35,-97,33,139
165,-34,-94,32,137
168,-34,-93,33,135
168,-36,-94,33,135
163,-40,-97,32,137
155,-44,-101,31,142
144,-45,-105,30,146
132,-44,-107,31,149
121,-40,-107,33,150
111,-37,-105,36,150
105,-36,-102,38,150
104,-37,-99,38,152
109,-40,-98,37,155
117,-42,-97,37,159
124,-42,-97,36,163
126,-42,-98,36,164
122,-41,-98,36,166
117,-43,-98,35,167
113,-45,-98,34,170
112,-47,-98,35,174
113,-46,-97,36,176
110,-43,-97,39,175
102,-39,-96,41,171
88,-37,-95,42,165
74,-39,-94,42,159
67,-44,-93,40,156
68,-51,-93,39,156
77,-55,-92,40,159
88,-53,-92,42,163
95,-48,-91,43,168
97,-42,-89,44,170
92,-39,-85,43,171
83,-41,-81,40,170
72,-48,-77,37,168
62,-56,-75,33,165
56,-62,-75,29,163
57,-64,-77,25,159
65,-62,-80,21,154
78,-58,-83,18,148
90,-53,-83,17,143
93,-49,-80,21,140
84,-44,-73,30,142
68,-37,-60,42,150
52,-28,-44,57,163
44,-17,-24,72,179
47,-6,-5,83,193
57,5,12,90,201
65,11,21,90,202
62,12,23,85,193
50,6,18,74,179
34,-4,8,60,161
23,-14,-2,47,146
22,-20,-7,38,135
29,-18,-6,35,130
37,-9,-1,37,129
40,2,7,41,129
36,10,14,45,127
27,12,18,45,123
19,9,19,43,115
15,6,19,42,107
14,7,21,45,100
16,14,26,52,97
17,25,34,62,97
18,36,42,72,98
22,43,49,79,98
31,47,54,82,96
42,51,58,82,92
52,55,61,81,90
55,61,65,79,89
50,68,69,79,93
40,71,72,79,98
29,72,76,79,102
21,71,81,79,104
17,72,85,79,101
18,76,90,80,95
21,82,94,82,88
26,86,97,83,81
33,88,98,83,76
42,86,98,81,71
51,84,96,77,64
54,84,96,74,56
50,88,96,72,47
38,96,98,72,38
25,105,100,76,32
17,112,102,80,29
16,117,106,85,30
22,120,111,87,32
28,121,118,88,34
27,123,125,88,35
21,124,129,88,35
16,126,130,88,34
20,128,127,89,33
34,129,122,90,33
53,129,118,91,34
66,128,116,92,34
65,125,117,91,34
50,120,119,88,32
30,116,119,84,28
18,115,118,78,23
20,117,115,73,17
34,123,112,70,12
49,132,110,71,9
57,139,109,74,7
55,143,110,78,7
48,141,110,81,8
42,137,109,81,9
42,135,106,80,8
46,135,103,79,7
48,140,100,79,5
45,146,100,81,3
41,151,102,84,1
40,152,106,86,-1
46,150,109,85,-3
57,146,110,82,-6
66,142,109,77,-8
65,141,105,73,-8
54,140,102,71,-7
39,141,101,71,-5
29,141,103,72,-2
31,143,108,74,-1
43,147,113,76,-2
56,152,116,79,-5
62,158,115,83,-9
57,162,112,88,-10
47,164,110,93,-7
40,163,109,98,1
41,161,110,103,11
49,162,113,106,19
58,164,116,107,22
61,168,117,106,21
55,171,117,103,16
44,172,116,99,10
34,172,115,96,5
31,170,114,96,3
36,168,112,97,2
46,166,111,100,0
58,163,110,102,-4
67,159,109,103,-8
73,155,109,102,-11
73,152,109,101,-10
68,152,109,101,-7
58,154,108,101,-2
46,158,105,102,1
37,161,101,103,1
33,165,97,102,-1
37,169,95,102,-2
46,173,96,103,-2
57,177,98,106,2
64,179,101,109,6
67,177,103,111,8
69,171,103,110,8
72,163,101,106,5
79,158,101,103,2
89,157,102,102,2
99,158,106,103,5
103,158,110,105,11
102,155,112,107,16
95,147,111,105,17
88,138,108,101,14
84,132,104,97,8
85,132,100,96,1
91,137,99,97,-5
99,144,97,100,-9
107,148,94,102,-11
113,149,89,102,-11
119,149,83,102,-9
127,151,78,101,-7
138,156,75,101,-6
152,161,75,102,-7
166,163,78,103,-10
178,159,80,100,-14
183,150,81,96,-16
181,142,81,92,-17
172,138,80,89,-16
160,140,81,89,-14
148,146,83,91,-13
138,150,85,94,-15
134,150,86,96,-17
134,145,86,96,-19
135,139,85,96,-20
134,135,82,95,-18
130,134,79,94,-15
123,136,76,92,-13
116,137,74,88,-13
113,138,72,84,-16
115,138,73,80,-21
121,141,75,79,-25
125,147,79,80,-27
124,153,83,83,-26
116,157,84,84,-23
103,155,81,83,-20
91,148,74,79,-19
82,137,64,72,-21
78,128,54,67,-26
78,123,47,63,-34
79,120,44,62,-40
79,120,45,64,-41
77,121,51,67,-34
73,121,62,72,-21
66,124,76,79,-2
58,129,92,87,15
49,135,106,94,26
42,141,115,97,27
37,143,117,94,18
38,141,112,83,3
44,137,101,67,-14
50,134,88,50,-28
55,133,76,37,-37
56,134,66,28,-43
52,134,58,25,-47
45,132,51,25,-51
36,126,47,26,-54
25,119,44,28,-53
13,113,46,31,-50
1,110,51,35,-44
-11,110,56,40,-38
-22,110,61,45,-35
-30,111,62,48,-36
-37,111,58,48,-39
-43,109,50,48,-44
-46,106,42,47,-46
-46,103,34,48,-46
-41,101,30,50,-44
-36,103,28,53,-41
-34,109,28,57,-39
-38,119,29,60,-38
-47,130,30,62,-38
-58,138,32,61,-38
-65,138,34,57,-39
-65,132,37,53,-39
-60,123,40,51,-37
-55,116,43,51,-34
-56,114,45,54,-31
-65,116,46,58,-27
-77,119,45,61,-26
-85,118,42,60,-28
-86,109,38,55,-33
-80,97,35,49,-41
-72,85,33,43,-49
-65,79,31,40,-55
-62,79,30,38,-60
-60,83,28,36,-64
-58,87,25,34,-67
-55,90,20,32,-70
-54,93,14,30,-72
-59,97,10,32,-72
-66,105,7,38,-71
-73,115,6,46,-69
-75,126,8,53,-68
-69,132,11,57,-66
-60,132,15,57,-65
-54,126,17,52,-64
-53,118,16,45,-63
-56,109,13,38,-63
-60,102,10,33,-64
-60,96,7,31,-66
-55,90,7,31,-69
-49,84,9,33,-70
-46,81,12,36,-69
-49,81,13,39,-64
-55,86,12,42,-58
-63,93,8,44,-53
-68,100,5,44,-49
-69,105,4,45,-46
-68,107,6,45,-45
-65,110,10,46,-44
-61,115,15,48,-43
-56,123,19,50,-42
-51,133,23,52,-41
-48,141,25,54,-41
-49,144,26,55,-42
-54,139,25,55,-43
-58,130,22,56,-44
-59,120,18,57,-43
-52,112,14,59,-42
-42,107,14,60,-40
-31,104,17,59,-38
-26,100,22,57,-38
-28,95,26,53,-40
-35,89,26,49,-45
-44,85,22,46,-51
-49,85,15,45,-57
-51,90,10,46,-60
-49,100,11,48,-58
-45,111,16,52,-53
-39,121,23,55,-47
-31,129,28,57,-41
-24,134,28,58,-38
-19,137,25,59,-38
-20,136,21,59,-39
-29,133,19,58,-40
-40,127,21,58,-40
-48,121,26,58,-40
-47,114,31,58,-39
-36,107,33,57,-39
-23,99,32,57,-41
-14,91,29,57,-44
-12,85,26,56,-47
-14,82,22,55,-49
-11,83,20,52,-48
4,87,18,48,-47
29,92,17,46,-45
59,96,17,46,-45
83,98,17,49,-47
94,98,16,55,-49
94,102,15,61,-50
89,109,14,66,-48
86,120,14,69,-44
89,132,17,69,-37
98,138,21,69,-31
109,137,26,70,-27
118,131,29,71,-27
124,122,31,73,-28
125,116,30,73,-30
124,113,28,73,-31
121,112,27,70,-31
120,109,26,65,-29
121,101,25,58,-26
126,89,26,52,-23
135,76,26,46,-20
146,69,27,42,-18
159,69,29,41,-17
172,76,31,44,-16
184,86,33,50,-15
195,96,35,57,-13
202,105,36,65,-9
206,114,38,71,-4
207,122,40,77,0
204,130,43,81,3
201,135,46,84,3
199,137,49,85,-1
200,136,49,83,-7
203,132,48,80,-14
